,x,y,z,pressure-normalized,heat-flux-normalized
0,1.801440995437411999e-02,-2.822251888054063093e-05,2.822253506751827896e-05,6.675185825956071994e+01,2.690874838936236338e+05
1,1.801568167722950031e-02,-8.467203087751261521e-05,2.805763818015513038e-05,6.678913842962361969e+01,2.693981538325859001e+05
2,1.801822827763625151e-02,-1.410962622662436132e-04,2.786097988569927856e-05,6.673095843992444998e+01,2.688238606568352552e+05
3,1.802204890790614841e-02,-1.974470098510736874e-04,2.765666624585533058e-05,6.659830678314135355e+01,2.677173033155961311e+05
4,1.802714158059089133e-02,-2.536962155836675948e-04,2.744451866318716043e-05,6.639048455361385948e+01,2.663958918596426956e+05
5,1.803350367987905170e-02,-3.098155208796086113e-04,2.722445686899758861e-05,6.610912502961440396e+01,2.650879547752318904e+05
6,1.804113194640129952e-02,-3.657763827005455185e-04,2.699671442841547860e-05,6.575501973086043961e+01,2.638972094224999310e+05
7,1.805002247929703846e-02,-4.215502923414083791e-04,2.676169566183732952e-05,6.532830421597810755e+01,2.627442722204598249e+05
8,1.806017074577812020e-02,-4.771088578576741790e-04,2.651992015016774854e-05,6.482717317393974099e+01,2.614585695211912680e+05
9,1.807157158969573130e-02,-5.324238486250436851e-04,2.627195935484670931e-05,6.425118399248665924e+01,2.599849894050524163e+05
10,1.808421924522797888e-02,-5.874672236339942896e-04,2.601844630366543896e-05,6.360092990413808423e+01,2.582869569357330620e+05
11,1.809810735451354916e-02,-6.422111706045755593e-04,2.576012884649308995e-05,6.287809145919422349e+01,2.563412033907781879e+05
12,1.811322898912880869e-02,-6.966281394126468173e-04,2.549787280768096070e-05,6.208487372769606338e+01,2.541282277463021455e+05
13,1.812957666578707966e-02,-7.506908569660643380e-04,2.523260642056337054e-05,6.122363948455987526e+01,2.516446908825696446e+05
14,1.814714236193111854e-02,-8.043723273416904587e-04,2.496532017518322984e-05,6.029796849147938786e+01,2.489137784268202377e+05
15,1.816591754234525916e-02,-8.576458675401646848e-04,2.469710336285451093e-05,5.931112791738627976e+01,2.459469473160069319e+05
16,1.818589317886267973e-02,-9.104851144816209548e-04,2.442910818475314068e-05,5.826622804977441206e+01,2.427513587578378210e+05
17,1.820705976462838951e-02,-9.628640230853103719e-04,2.416244630452095866e-05,5.716720316999321483e+01,2.393408197817690088e+05
18,1.822940732562211910e-02,-1.014756853164360895e-03,2.389818031698880881e-05,5.601847735418613894e+01,2.357350695117909054e+05
19,1.825292544135507025e-02,-1.066138178320401959e-03,2.363739633632976040e-05,5.482373366138516246e+01,2.319374231898018916e+05
20,1.827760325492202090e-02,-1.116982874714244917e-03,2.338119336971770102e-05,5.358548669419962351e+01,2.279695332664677699e+05
21,1.830342948170329137e-02,-1.167266111988727022e-03,2.313063235853122089e-05,5.230708587204748738e+01,2.238500920598654775e+05
22,1.833039240188017935e-02,-1.216963318554951023e-03,2.288671184693250848e-05,5.099242576190070508e+01,2.195914309424699168e+05
23,1.835847986716405977e-02,-1.266050177378527999e-03,2.265039375808124023e-05,4.964490348300704881e+01,2.152049420013217605e+05
24,1.838767930475693896e-02,-1.314502623375398988e-03,2.242260320586654936e-05,4.826742018961994063e+01,2.106935061168279208e+05
25,1.841797774889433054e-02,-1.362296879324601017e-03,2.220426960999916127e-05,4.686378230576310244e+01,2.060582887319073197e+05
26,1.844936179643536997e-02,-1.409409378542771053e-03,2.199635684960630922e-05,4.543849298883748844e+01,2.013096090903671284e+05
27,1.848181748615965875e-02,-1.455816592182562937e-03,2.179999602140101963e-05,4.399787498025296628e+01,1.964562224397608370e+05
28,1.851533010673515889e-02,-1.501494810388761007e-03,2.161686401633724065e-05,4.254823460220279685e+01,1.914545434104021115e+05
29,1.854988379731280917e-02,-1.546419703537925015e-03,2.145025982295218150e-05,4.110553149367284220e+01,1.863485757415389526e+05
30,1.858545996514535115e-02,-1.590564553347047910e-03,2.130813304079967000e-05,3.967374820340116059e+01,1.812780479982857360e+05
31,1.862201873762367108e-02,-1.633879048058510053e-03,2.123141871263519915e-05,3.830706167060289857e+01,1.769435473446602991e+05
32,1.865943874482377945e-02,-1.676226602533919087e-03,2.136872370551224146e-05,3.679756313935955347e+01,1.708824780602004321e+05
33,1.869770762487027102e-02,-1.717605405069901970e-03,2.170337983828081888e-05,3.533856766179248154e+01,1.659679976711226918e+05
34,1.873691043454289024e-02,-1.758120244255029999e-03,2.207537403521088955e-05,3.389291070657473881e+01,1.609394201544351818e+05
35,1.877704245440614886e-02,-1.797765073930516003e-03,2.245092904261286026e-05,3.244633316448282301e+01,1.557285400749850378e+05
36,1.881808231213236149e-02,-1.836515723096702893e-03,2.282494089780953163e-05,3.101248965743919683e+01,1.504140302353955631e+05
37,1.886000773537188993e-02,-1.874348413874914014e-03,2.319553329196277899e-05,2.960731385141907523e+01,1.450910845157941512e+05
38,1.890279611939255089e-02,-1.911240349959311994e-03,2.356183364223723883e-05,2.823961940184310748e+01,1.398677147818023805e+05
39,1.894642455480417126e-02,-1.947169686347305926e-03,2.392334576008778153e-05,2.690176771111988074e+01,1.346932148904490750e+05
40,1.899086981785939876e-02,-1.982115465159578829e-03,2.427973138062818900e-05,2.559088327541024199e+01,1.295353414095298649e+05
41,1.903610842243615847e-02,-2.016057605232257025e-03,2.463065652246581981e-05,2.431315803962188937e+01,1.244544355459848302e+05
42,1.908211662766253966e-02,-2.048976858945841199e-03,2.497576889578963900e-05,2.306760502953965641e+01,1.194210932230867184e+05
43,1.912887038081172858e-02,-2.080854727193329028e-03,2.531474220758024167e-05,2.185965153481098966e+01,1.145019848899887875e+05
44,1.917634532504130032e-02,-2.111673435560344845e-03,2.564728197704019109e-05,2.068469226895059521e+01,1.096315809760006523e+05
45,1.922451677051752877e-02,-2.141415893443048089e-03,2.597310678027676972e-05,1.954886199425403603e+01,1.048848314629737870e+05
46,1.927335971016973931e-02,-2.170065686266747090e-03,2.629194445592286845e-05,1.844736153231760767e+01,1.001854692649534991e+05
47,1.932284884190961158e-02,-2.197607074318042031e-03,2.660354149868226120e-05,1.738774842022268530e+01,9.562841646493969893e+04
48,1.937295857473873839e-02,-2.224024981324861875e-03,2.690764726783880924e-05,1.636512744658927332e+01,9.114032630156121741e+04
49,1.942366303195327062e-02,-2.249304986096030932e-03,2.720398137154716062e-05,1.538478075287267899e+01,8.679330134133712272e+04
50,1.947493604676707110e-02,-2.273433310617493149e-03,2.749223428267173061e-05,1.444368885395984137e+01,8.253201029641416972e+04
51,1.952675122162670848e-02,-2.296396838898059987e-03,2.777210010187216937e-05,1.354630925034229705e+01,7.844715089215831540e+04
52,1.957908192015741025e-02,-2.318183103288492045e-03,2.804328458632518047e-05,1.268528357284778529e+01,7.442849547805509064e+04
53,1.963190127794987860e-02,-2.338780279790562185e-03,2.830550043767136856e-05,1.186636560036561328e+01,7.057210749543327256e+04
54,1.968518225212631881e-02,-2.358177199617647862e-03,2.855846665723853030e-05,1.108520549009016420e+01,6.681077096892570262e+04
55,1.973889762367079040e-02,-2.376363339023794975e-03,2.880191559287418980e-05,1.034519656031562285e+01,6.320366687029713648e+04
56,1.979302006598621100e-02,-2.393328830581394149e-03,2.903559271993147095e-05,9.642750388161836383e+00,5.971209580187122629e+04
57,1.984752217130281854e-02,-2.409064456885995006e-03,2.925925434478383999e-05,8.979217500025262311e+00,5.636465577981353999e+04
58,1.990237653654191100e-02,-2.423561654355456830e-03,2.947267018862959002e-05,8.351834605843222903e+00,5.314419710200501140e+04
59,1.995755595172679989e-02,-2.436812532653518954e-03,2.967563940120203873e-05,7.760802935478054110e+00,5.005781327094569860e+04
60,2.001303364946127941e-02,-2.448809879104156800e-03,2.986803777131371142e-05,7.203027850361719331e+00,4.711288125978525932e+04
61,2.006878392496802901e-02,-2.459547192743017155e-03,3.004999500612260988e-05,6.676899158502367371e+00,4.430922298899432644e+04
62,2.012478221229463057e-02,-2.469018555688096139e-03,3.022227017858967164e-05,6.181693190276348560e+00,4.174956036243290146e+04
63,2.018096979932460996e-02,-2.477214377695221171e-03,3.037680085481286044e-05,5.749358081524438724e+00,3.884804247023347125e+04
64,2.024256307544206046e-02,-2.485099232844763164e-03,3.049794058032942898e-05,5.479362030036558195e+00,3.627774630840515601e+04
65,2.031239513857386117e-02,-2.493670767372772011e-03,3.060320716223391223e-05,5.352640214724588397e+00,3.474435780516317027e+04
66,2.038828727240539138e-02,-2.502986146851291990e-03,3.071753738726931118e-05,5.262242656878973968e+00,3.359453318840303837e+04
67,2.047076344060059019e-02,-2.513109683767647019e-03,3.084177882283978880e-05,5.189532201825233670e+00,3.265995257954042245e+04
68,2.056039255847246991e-02,-2.524111209479013018e-03,3.097679476400610847e-05,5.124853023795593820e+00,3.184994714895221477e+04
69,2.065779228647753041e-02,-2.536066538700177796e-03,3.112351618453813325e-05,5.064968737722277403e+00,3.115222942572104512e+04
70,2.076363313192923152e-02,-2.549057972849402137e-03,3.128295316795828840e-05,5.004866256067988850e+00,3.046735786021007516e+04
71,2.087864288120399106e-02,-2.563174844059768788e-03,3.145620204369137322e-05,4.942300807651833772e+00,2.981093332936245861e+04
72,2.100361138916486889e-02,-2.578514103065700138e-03,3.164445263671621859e-05,4.877962427508137466e+00,2.919323134724313422e+04
73,2.113939574863286930e-02,-2.595180953724528922e-03,3.184899605816572053e-05,4.811082181276918668e+00,2.858428046208164596e+04
74,2.128692586859080166e-02,-2.613289537704159820e-03,3.207123310829908724e-05,4.739733254471042656e+00,2.796576480518657263e+04
75,2.144721048857048049e-02,-2.632963672741480028e-03,3.231268333646445138e-05,4.664130787225007957e+00,2.734034772098761096e+04
76,2.162134365850236842e-02,-2.654337647986818819e-03,3.257499480224655035e-05,4.584694902752001866e+00,2.671176218171680739e+04
77,2.181051171428774124e-02,-2.677557080230279999e-03,3.285995458336759086e-05,4.501260390069989015e+00,2.608355927444422559e+04
78,2.201600078019912143e-02,-2.702779834802074028e-03,3.316950007717984117e-05,4.414087699330671022e+00,2.545759354456279834e+04
79,2.223920482972262941e-02,-2.730177014966356144e-03,3.350573114351359003e-05,4.322122862514555131e+00,2.481633959548684652e+04
80,2.248163433733791836e-02,-2.759934023903759959e-03,3.387092313711561063e-05,4.225319444176344419e+00,2.416393135489021370e+04
81,2.274492555213283168e-02,-2.792251703005330966e-03,3.426754087784395322e-05,4.125799694266373052e+00,2.351391193295035191e+04
82,2.303085042574639849e-02,-2.827347550464316076e-03,3.469825360596166239e-05,4.024349470022424491e+00,2.286589101600756476e+04
83,2.334132722480930164e-02,-2.865457023919465007e-03,3.516595096818706987e-05,3.920823142745654355e+00,2.221318941611479386e+04
84,2.367843185604657022e-02,-2.906834930526520054e-03,3.567376007737019282e-05,3.814666430654956919e+00,2.156586441213488069e+04
85,2.404440992891923937e-02,-2.951756907609313051e-03,3.622506368455127764e-05,3.706909588779098819e+00,2.093118318765126605e+04
86,2.444168958010750972e-02,-3.000520996802456992e-03,3.682351949646174084e-05,3.598221626954350771e+00,2.030181740013575472e+04
87,2.487289507435693978e-02,-3.053449313462503097e-03,3.747308066388580698e-05,3.488608814116151091e+00,1.967235437969435225e+04
88,2.534086119261329956e-02,-3.110889812763454124e-03,3.817801745641580849e-05,3.381082383057738117e+00,1.905369806642804178e+04
89,2.584864841063452129e-02,-3.173218152797465004e-03,3.894294012654846268e-05,3.277789512387177862e+00,1.844577953633982906e+04
90,2.639955885763043894e-02,-3.240839653403564027e-03,3.977282295031622810e-05,3.181250575116526313e+00,1.789142385243357421e+04
91,2.699715303627681084e-02,-3.314191348463291827e-03,4.067302941223644884e-05,3.086887129273930164e+00,1.736558041535374650e+04
92,2.764526726320468142e-02,-3.393744126639031914e-03,4.164933847866451042e-05,2.994393167267269451e+00,1.687233445629587732e+04
93,2.834803177592434137e-02,-3.480004953924017985e-03,4.270797187502928932e-05,2.903254730977122833e+00,1.637540238238030361e+04
94,2.910988942935928067e-02,-3.573519168535300994e-03,4.385562224822110196e-05,2.818166626528546992e+00,1.592148653745255433e+04
95,2.993561487357208895e-02,-3.674872834870767171e-03,4.509948205478557759e-05,2.739754389811193125e+00,1.548268558059992756e+04
96,3.083033407262645090e-02,-3.784695139363465893e-03,4.644727296779381287e-05,2.671463630108534826e+00,1.508729677836630981e+04
97,3.179954399866845305e-02,-3.903660807840935842e-03,4.790727553946234771e-05,2.611017729877957105e+00,1.474176915232323336e+04
98,3.284913227703591815e-02,-4.032492516851879372e-03,4.948835879192271076e-05,2.553939587603453631e+00,1.442607213301763841e+04
99,3.398539650517488214e-02,-4.171963264969195777e-03,5.120000933419105801e-05,2.500574704608844012e+00,1.412608300083584436e+04
100,3.521506295930401653e-02,-4.322898668941711417e-03,5.305235951860190030e-05,2.452485623997832764e+00,1.384142069833961432e+04
101,3.654530425805564003e-02,-4.486179131810087879e-03,5.505621405412558300e-05,2.413188168948415591e+00,1.358793690376898303e+04
102,3.798375552149305806e-02,-4.662741826357553326e-03,5.722307438662734165e-05,2.384146912559994558e+00,1.338805670450147227e+04
103,3.953852857695627776e-02,-4.853582438802915393e-03,5.956516003708685726e-05,2.362026987309140402e+00,1.320295887057041000e+04
104,4.121822348048229806e-02,-5.059756582990327343e-03,6.209542595838639573e-05,2.345796743533303363e+00,1.305948583486959978e+04
105,4.303193657482415335e-02,-5.282380789465770249e-03,6.482757483017374377e-05,2.333835407232271564e+00,1.289379099700434563e+04
106,4.498926466059238738e-02,-5.522633017485240568e-03,6.777606306104935275e-05,2.330777843961136853e+00,1.277867784186519384e+04
107,4.710030379208728774e-02,-5.781752507199797164e-03,7.095609911023484687e-05,2.334358012030660401e+00,1.267930568082545869e+04
108,4.937564185846574777e-02,-6.061038869018453047e-03,7.438363258039412240e-05,2.344407535187894798e+00,1.255532049697110961e+04
109,5.182634441983564877e-02,-6.361850345064539065e-03,7.807533237408862011e-05,2.360996549149195545e+00,1.245739209764169755e+04
110,5.446393157409942093e-02,-6.685600969712846356e-03,8.204855205475898713e-05,2.383609735599212076e+00,1.238226222959867300e+04
111,5.730034494299936915e-02,-7.033756517281736925e-03,8.632128041721392000e-05,2.411476382290618670e+00,1.231412888323871630e+04
112,6.034790386787135252e-02,-7.407829125271315346e-03,9.091207516227111426e-05,2.443749389522936522e+00,1.224209553736556882e+04
113,6.361924867266774419e-02,-7.809370330190920986e-03,9.583997749759851829e-05,2.479843286861093343e+00,1.216382227336566029e+04
114,6.712726994804886493e-02,-8.239962387542855426e-03,1.011244054662656003e-04,2.519401002973438608e+00,1.207911165287061158e+04
115,7.088502198945040300e-02,-8.701207646769505005e-03,1.067850238523225981e-04,2.561505992759023353e+00,1.198103759842612453e+04
116,7.490561957046154573e-02,-9.194715880698259985e-03,1.128415886470197991e-04,2.605027148770148404e+00,1.186783139262847908e+04
117,7.920211679616023792e-02,-9.722089415405076387e-03,1.193137642997184995e-04,2.648883982989498787e+00,1.174053845534351058e+04
118,8.378736659200791692e-02,-1.028490588317028040e-02,1.262209123438609896e-04,2.691469086309638659e+00,1.159106894485803423e+04
119,8.867386089394602156e-02,-1.088469860662405995e-02,1.335818505000328890e-04,2.732170560698643946e+00,1.142210955019651374e+04
120,9.387355117573575880e-02,-1.152293456937496935e-02,1.414145820320530044e-04,2.769990166169308488e+00,1.123168461486684100e+04
121,9.939764914022976294e-02,-1.220098995183640025e-02,1.497359959809170049e-04,2.804691036510361002e+00,1.102374538853832019e+04
122,1.052564093325596001e-01,-1.292012344810032978e-02,1.585615399314354874e-04,2.836130690404739862e+00,1.079708753267440625e+04
123,1.114588961129241024e-01,-1.368144766303574025e-02,1.679048681741630096e-04,2.865096475641365714e+00,1.056472895090547354e+04
124,1.180127363024344039e-01,-1.448589875076813915e-02,1.777774694953190078e-04,2.890005365716937558e+00,1.032177762630510188e+04
125,1.249238620746730005e-01,-1.533420485591393927e-02,1.881882803294244089e-04,2.911638336088713697e+00,1.007281675167960566e+04
126,1.321962498494861082e-01,-1.622685406412081865e-02,1.991432905956303098e-04,2.931425348660199326e+00,9.824244565101016633e+03
127,1.398316594766401133e-01,-1.716406238813533019e-02,2.106451511430100000e-04,2.948605934673705686e+00,9.577868153392077147e+03
128,1.478293814694260910e-01,-1.814574274200627876e-02,2.226927932670842920e-04,2.963572076743049788e+00,9.331612150196951916e+03
129,1.561860003565430921e-01,-1.917147589372998964e-02,2.352810721274571095e-04,2.975698505646303449e+00,9.084260485775972484e+03
130,1.648951827593264086e-01,-2.024048445277673927e-02,2.484004469789219947e-04,2.987231079197920192e+00,8.847164136685936683e+03
131,1.739474982707857054e-01,-2.135161088387025133e-02,2.620367118035355977e-04,2.992860879334028112e+00,8.604994174201074202e+03
132,1.833302826955909015e-01,-2.250330072039757878e-02,2.761707900785901238e-04,2.997055517773773214e+00,8.365354676027751339e+03
133,1.930275542727465099e-01,-2.369359228118381872e-02,2.907786069276992874e-04,3.001843141898572043e+00,8.141751018586992359e+03
134,2.030199876797462999e-01,-2.492011347958788051e-02,3.058310506979930107e-04,3.003176011893739616e+00,7.920025091518074987e+03
135,2.132849542105972052e-01,-2.618008675518251893e-02,3.212940340421480785e-04,3.001415452452287802e+00,7.709634199805061144e+03
136,2.237966337220821944e-01,-2.747034281460139851e-02,3.371286618664843236e-04,2.999758309884757335e+00,7.497060859788905873e+03
137,2.345261995135232980e-01,-2.878734332457814904e-02,3.532915101002528794e-04,3.000635271277156679e+00,7.295643636988783328e+03
138,2.454420769918601031e-01,-3.012721266180864998e-02,3.697350152737061244e-04,3.001998040874494400e+00,7.119682636282639578e+03
139,2.565102729466914866e-01,-3.148577832982989155e-02,3.864079705506497922e-04,3.001298203976130896e+00,6.955428816592346266e+03
140,2.676947696418762734e-01,-3.285861933176036087e-02,4.032561193818186155e-04,2.998805902448596683e+00,6.796027673038159264e+03
141,2.789579749635818784e-01,-3.424112142373426232e-02,4.202228336008497953e-04,2.998223978730806927e+00,6.641152894540417947e+03
142,2.902612172803473167e-01,-3.562853785650958727e-02,4.372498588594549238e-04,2.998879822632785075e+00,6.495371065616866872e+03
143,3.015652714578477833e-01,-3.701605394113113845e-02,4.542781070645934816e-04,2.998937501645200676e+00,6.363798735150568064e+03
144,3.128309011269436724e-01,-3.839885360962549260e-02,4.712484731714408973e-04,2.997851481521462080e+00,6.246437361735343075e+03
145,3.240194012344890795e-01,-3.977218601039229223e-02,4.881026524733199172e-04,2.995973815613068414e+00,6.130204454502733824e+03
146,3.350931250219981727e-01,-4.113143019221565666e-02,5.047839345050567474e-04,2.995894718561724179e+00,6.020804535848778869e+03
147,3.460159804824681218e-01,-4.247215604184943760e-02,5.212379508407643299e-04,2.996500621117267116e+00,5.916693246614925556e+03
148,3.567538825862109908e-01,-4.379017979245960340e-02,5.374133563338616545e-04,2.996860992251237477e+00,5.821563483261131296e+03
149,3.672751498794861180e-01,-4.508161270412085198e-02,5.532624265468664071e-04,2.996317648804430966e+00,5.731832890482442053e+03
150,3.775508365837981217e-01,-4.634290182737636071e-02,5.687415580204796452e-04,2.994561432398196388e+00,5.650646587482971881e+03
151,3.875549942096240819e-01,-4.757086211499088335e-02,5.838116623642830485e-04,2.992610723391381455e+00,5.570288036697233110e+03
152,3.972648596717774927e-01,-4.876269951215587983e-02,5.984384496306526620e-04,2.992650462015018942e+00,5.498466728577284812e+03
153,4.066609697831261028e-01,-4.991602501004684111e-02,6.125926007862210303e-04,2.993443490923066719e+00,5.429943458554786957e+03
