,x,y,z,pressure-normalized,heat-flux-normalized
0,1.801393234715019040e-02,1.413014671834004973e-05,1.412927266209419993e-05,6.665736536339541374e+01,2.647950488314328832e+05
1,1.801425152122070050e-02,4.239647560660363249e-05,1.408751174738013966e-05,6.657016375838909994e+01,2.641480685736347223e+05
2,1.801489037163896134e-02,7.066544045608596667e-05,1.403561345422760011e-05,6.646468933331709650e+01,2.634372114520932664e+05
3,1.801584891077911976e-02,9.892528646602909929e-05,1.398266698611539073e-05,6.634068779364908153e+01,2.628503699105515261e+05
4,1.801712700247819904e-02,1.271719694465111921e-04,1.392934516377055965e-05,6.619869815846610095e+01,2.623258154704275075e+05
5,1.801872447694304047e-02,1.554020808338522127e-04,1.387550954417519973e-05,6.603922781473956150e+01,2.618180852009450318e+05
6,1.802064112905937127e-02,1.836121633895870060e-04,1.382104340102421974e-05,6.586109512774589803e+01,2.613497549998693576e+05
7,1.802287671354821028e-02,2.117986789102597914e-04,1.376589275206536951e-05,6.566358452686344549e+01,2.609358592072413594e+05
8,1.802543094420213168e-02,2.399580517501562118e-04,1.371003904432497922e-05,6.544645448300238399e+01,2.605506036248735909e+05
9,1.802830349268260898e-02,2.680866836260022775e-04,1.365347941607105049e-05,6.521015605821989425e+01,2.601555954869583366e+05
10,1.803149399191698171e-02,2.961809920644223109e-04,1.359621879330673968e-05,6.495427303038241007e+01,2.597146733938982943e+05
11,1.803500203428475002e-02,3.242373968952392822e-04,1.353826842152216971e-05,6.467911772888756161e+01,2.592144386987807229e+05
12,1.803882716844953937e-02,3.522522945937592190e-04,1.347964453193732025e-05,6.438466416438369322e+01,2.586496835211749712e+05
13,1.804296890412824053e-02,3.802221016336208913e-04,1.342036563618936072e-05,6.407164493000178140e+01,2.580117654390652606e+05
14,1.804742671148592062e-02,4.081432461848487911e-04,1.336045241396150044e-05,6.374030082226764904e+01,2.572714339608264563e+05
15,1.805220002031701979e-02,4.360121611394945961e-04,1.329992925628300023e-05,6.339101723395586419e+01,2.564281196227663895e+05
16,1.805728821946364984e-02,4.638252818401807087e-04,1.323882328476680068e-05,6.302423935559554735e+01,2.554914778863555402e+05
17,1.806269065916665112e-02,4.915790586928527875e-04,1.317715983822972976e-05,6.264035025026500847e+01,2.544717613638176990e+05
18,1.806840664824720111e-02,5.192699430775294181e-04,1.311496308428716040e-05,6.223963264336592971e+01,2.533775568687432678e+05
19,1.807443545717302147e-02,5.468944005891709101e-04,1.305226073610592002e-05,6.182232009798441652e+01,2.522147539321999648e+05
20,1.808077631784328967e-02,5.744489108325249354e-04,1.298908481617513068e-05,6.138863137234088896e+01,2.509874228998087929e+05
21,1.808742842190544028e-02,6.019299575681271840e-04,1.292546856826543013e-05,6.093882271148275009e+01,2.496986712453792861e+05
22,1.809439092387194956e-02,6.293340430772423506e-04,1.286144689352952939e-05,6.047320677578548498e+01,2.483487658892280306e+05
23,1.810166293798759138e-02,6.566576739384557670e-04,1.279705944157277934e-05,5.999218671975505401e+01,2.469378931104745134e+05
24,1.810924354418969040e-02,6.838973830173780558e-04,1.273234946822818933e-05,5.949626262681058364e+01,2.454666356349519046e+05
25,1.811713178234028096e-02,7.110497080114783859e-04,1.266735809559425987e-05,5.898593140658095990e+01,2.439357643739953055e+05
26,1.812532665347078853e-02,7.381111950716325205e-04,1.260212489399648047e-05,5.846152960044955194e+01,2.423466964375570533e+05
27,1.813382712321039841e-02,7.650784110898457401e-04,1.253669364518631961e-05,5.792351368569463688e+01,2.407068078414571064e+05
28,1.814263212031176978e-02,7.919479366316181700e-04,1.247111267297385933e-05,5.737213508694137687e+01,2.390169807983977080e+05
29,1.815174053867883025e-02,8.187163722127315966e-04,1.240543071760563045e-05,5.680791919359219122e+01,2.372794814732508967e+05
30,1.816115123252265082e-02,8.453803231876696198e-04,1.233969695779486045e-05,5.623134399487088331e+01,2.354955636265792709e+05
31,1.817086302367166076e-02,8.719364202435968877e-04,1.227396442535634056e-05,5.564283867379739945e+01,2.336662987758390082e+05
32,1.818087469762385069e-02,8.983813080031421592e-04,1.220828791976754015e-05,5.504280135726273926e+01,2.317923424988298211e+05
33,1.819118500395246890e-02,9.247116450682894102e-04,1.214271673837424982e-05,5.443165869784365896e+01,2.298746492998473113e+05
34,1.820179265876025951e-02,9.509241107976825706e-04,1.207729522461330014e-05,5.380989107527686599e+01,2.279150390353880066e+05
35,1.821269634055221881e-02,9.770153937363891105e-04,1.201206998817368974e-05,5.317798115003567716e+01,2.259157750243823393e+05
36,1.822389469963096864e-02,1.002982213879079947e-03,1.194709046545043938e-05,5.253638132549717454e+01,2.238786740673861641e+05
37,1.823538634393514005e-02,1.028821289611276009e-03,1.188240535612775067e-05,5.188560807682104326e+01,2.218046890053953975e+05
38,1.824716984960446028e-02,1.054529361261853995e-03,1.181806242079811005e-05,5.122603170773174952e+01,2.196929379325500631e+05
39,1.825924376541232866e-02,1.080103201029157956e-03,1.175411149994239968e-05,5.055804242802230419e+01,2.175457063613912615e+05
40,1.827160660091462982e-02,1.105539585517229971e-03,1.169060317108929940e-05,4.988224375576412228e+01,2.153660981312272779e+05
41,1.828425683595544943e-02,1.130835316570634897e-03,1.162758488078556002e-05,4.919915166930707073e+01,2.131537643354222528e+05
42,1.829719291381125962e-02,1.155987206897160892e-03,1.156510067934342957e-05,4.850929167388150631e+01,2.109089066710680781e+05
43,1.831041324666736123e-02,1.180992090604651018e-03,1.150319464728263964e-05,4.781320784553497560e+01,2.086320831661543634e+05
44,1.832391621314860899e-02,1.205846818625500938e-03,1.144191081828663992e-05,4.711148513246241265e+01,2.063242947837473475e+05
45,1.833770015795286104e-02,1.230548257539727970e-03,1.138129221275600984e-05,4.640469367642234744e+01,2.039867989769624255e+05
46,1.835176339576205171e-02,1.255093296980364006e-03,1.132138009263673916e-05,4.569340131375439285e+01,2.016212043316394265e+05
47,1.836610420447179828e-02,1.279478837373879997e-03,1.126221469388527921e-05,4.497815831851229973e+01,1.992294746388355852e+05
48,1.838072083162081011e-02,1.303701801244220053e-03,1.120383547252203924e-05,4.425945753797962823e+01,1.968138180991025583e+05
49,1.839561149480203883e-02,1.327759133588518907e-03,1.114628368149531003e-05,4.353775512318605223e+01,1.943766353132450313e+05
50,1.841077438009123060e-02,1.351647798781923076e-03,1.108960142388627033e-05,4.281350027256259239e+01,1.919201593507679354e+05
51,1.842620764086438934e-02,1.375364778902773023e-03,1.103382955190993983e-05,4.208686507268450328e+01,1.894451892630335933e+05
52,1.844190939281889832e-02,1.398907066407241049e-03,1.097900914254375001e-05,4.135812612130423815e+01,1.869551275468796084e+05
53,1.845787772003920982e-02,1.422271673772496905e-03,1.092518827997868936e-05,4.062761932281134847e+01,1.844519712949888199e+05
54,1.847411066871676097e-02,1.445455624927806989e-03,1.087242329032710959e-05,3.989561584605888100e+01,1.819357456042704871e+05
55,1.849060624440459003e-02,1.468455952144537063e-03,1.082077869182364945e-05,3.916244589422155542e+01,1.794067461318894639e+05
56,1.850736241044868141e-02,1.491269695568322919e-03,1.077033871939267980e-05,3.842854509483913006e+01,1.768654971264188353e+05
57,1.852437708343114900e-02,1.513893898123442033e-03,1.072123742217320083e-05,3.769454864705610220e+01,1.743117203316853847e+05
58,1.854164812838232992e-02,1.536325601695582958e-03,1.067367306058593936e-05,3.696059437756517241e+01,1.717409047289061418e+05
59,1.855917332600380901e-02,1.558561808658298067e-03,1.062792980002534071e-05,3.622964248334548643e+01,1.691756483878477302e+05
60,1.857695035345216863e-02,1.580599464119956032e-03,1.058446577398961939e-05,3.549871829740660445e+01,1.665343270671856881e+05
61,1.859497672914301944e-02,1.602435396821565985e-03,1.054417165593885045e-05,3.477976223323929617e+01,1.639247024610353692e+05
62,1.861324963374147087e-02,1.624066116148994900e-03,1.050921082328246017e-05,3.406461699711990576e+01,1.612141661732435459e+05
63,1.863176164525027004e-02,1.645482932813483986e-03,1.049022183076007967e-05,3.338625249498905134e+01,1.590026728646754927e+05
64,1.865049575822131864e-02,1.666666764873528037e-03,1.051943781801645043e-05,3.264580474919453934e+01,1.560784291739634355e+05
65,1.866945081594796954e-02,1.687617489484632928e-03,1.059385791424368960e-05,3.193782041197002286e+01,1.535115064481782319e+05
66,1.868863976364357887e-02,1.708350669103292927e-03,1.067970582495583047e-05,3.123823350006625432e+01,1.509379282146290643e+05
67,1.870806436450543966e-02,1.728868344745556045e-03,1.076816238873781993e-05,3.054171775184852677e+01,1.483230590382495138e+05
68,1.872772210170797064e-02,1.749167699609027000e-03,1.085757581341791024e-05,2.985141994118897557e+01,1.457004144522862916e+05
69,1.874761039225076101e-02,1.769245906545393893e-03,1.094730579814608974e-05,2.916933941568295197e+01,1.430871946183179389e+05
70,1.876772661505437048e-02,1.789100167982496034e-03,1.103706228183674958e-05,2.849566429710397841e+01,1.404956220258475805e+05
71,1.878806811453625006e-02,1.808727721874299910e-03,1.112667990525839923e-05,2.782919730441110673e+01,1.379319734362576273e+05
72,1.880863221322860018e-02,1.828125854365283921e-03,1.121605335807666036e-05,2.716800523070365259e+01,1.353915872978096304e+05
73,1.882941621176421887e-02,1.847291898420128043e-03,1.130511445142220060e-05,2.651049301148235315e+01,1.328652714343370462e+05
74,1.885041739045210940e-02,1.866223234162350071e-03,1.139382101408708967e-05,2.585604927090587779e+01,1.303449077124281757e+05
75,1.887163300530839832e-02,1.884917284144363046e-03,1.148214148709235960e-05,2.520515743460114066e+01,1.278246989842114708e+05
76,1.889306028789735151e-02,1.903371512441216036e-03,1.157005093006630073e-05,2.455907301872672832e+01,1.253010593172863009e+05
77,1.891469644629454119e-02,1.921583424661957003e-03,1.165753032626312050e-05,2.391964361525422689e+01,1.227761896175283182e+05
78,1.893653866567911875e-02,1.939550567740112906e-03,1.174456571049585953e-05,2.328863800335905410e+01,1.202537379618491977e+05
79,1.895858410788981915e-02,1.957270528845663111e-03,1.183114540796290978e-05,2.266764679198977461e+01,1.177422042712354159e+05
80,1.898082991159077970e-02,1.974740934966391203e-03,1.191725821646261918e-05,2.205745296678137635e+01,1.152473954352650762e+05
81,1.900327319443144078e-02,1.991959453984836013e-03,1.200289023575074069e-05,2.145844394296817015e+01,1.127764522844009916e+05
82,1.902591105408675889e-02,2.008923794833980883e-03,1.208802540817638019e-05,2.087038612573140384e+01,1.103312897170690994e+05
83,1.904874056576480110e-02,2.025631704935876992e-03,1.217264866683423033e-05,2.029308444207269346e+01,1.079153308055798843e+05
84,1.907175878232221858e-02,2.042080969880604151e-03,1.225674629536170997e-05,1.972602987216104609e+01,1.055267618765982770e+05
85,1.909496273415256865e-02,2.058269413002353828e-03,1.234030468533351942e-05,1.916906827886802489e+01,1.031678442267734499e+05
86,1.911834942967832046e-02,2.074194895412679023e-03,1.242331044955952055e-05,1.862172661720131828e+01,1.008336866888857185e+05
87,1.914191585595146142e-02,2.089855316093524023e-03,1.250575168076545079e-05,1.808422776558503031e+01,9.852858279587485595e+04
88,1.916565897831349133e-02,2.105248611406265995e-03,1.258761740588216016e-05,1.755628029635476750e+01,9.624736853167008667e+04
89,1.918957573929076094e-02,2.120372754208690869e-03,1.266889573780087055e-05,1.703818732103743017e+01,9.399460919721491518e+04
90,1.921366306018802012e-02,2.135225754719557827e-03,1.274957402235980930e-05,1.652976557605462560e+01,9.176537884155362553e+04
91,1.923791784972690017e-02,2.149805665420521060e-03,1.282964072033460032e-05,1.603148777436840078e+01,8.956733116217414499e+04
92,1.926233698467798988e-02,2.164110569319273054e-03,1.290908528354222970e-05,1.554300109592450241e+01,8.739259473292081384e+04
93,1.928691731953635982e-02,2.178138585671679159e-03,1.298789699320049035e-05,1.506488147247983989e+01,8.525234345019540342e+04
94,1.931165570103480014e-02,2.191887878394447025e-03,1.306606491173689962e-05,1.459657664352094386e+01,8.313448443637166929e+04
95,1.933654895196914095e-02,2.205356646208390947e-03,1.314357873517206064e-05,1.413880978984403214e+01,8.105426112403305888e+04
96,1.936159387644419833e-02,2.218543125631067953e-03,1.322042811009084025e-05,1.369087756215588669e+01,7.899567656629238627e+04
97,1.938678725897784866e-02,2.231445590430768816e-03,1.329660071479180951e-05,1.325356383839751828e+01,7.697752274429888348e+04
98,1.941212586508045054e-02,2.244062351859105880e-03,1.337208239758106951e-05,1.282601741434529430e+01,7.498135534688312327e+04
99,1.943760644303257901e-02,2.256391759451601819e-03,1.344685918102517044e-05,1.240902963587383567e+01,7.302231956175636151e+04
100,1.946322572448033056e-02,2.268432201166064189e-03,1.352091759611365942e-05,1.200223411478876478e+01,7.109547997837324510e+04
101,1.948898042410960110e-02,2.280182103118302047e-03,1.359424410374463069e-05,1.160546375239254502e+01,6.920238380367602804e+04
102,1.951486724014556140e-02,2.291639929703891826e-03,1.366682509681287014e-05,1.121848032814202512e+01,6.734135701256406901e+04
103,1.954088285557037050e-02,2.302804184035711025e-03,1.373864755520201045e-05,1.084120875186838440e+01,6.551338358187607810e+04
104,1.956702393832282158e-02,2.313673407892867951e-03,1.380969885819504965e-05,1.047348128930764055e+01,6.371708797411174601e+04
105,1.959328714102047050e-02,2.324246181515545948e-03,1.387996606984259083e-05,1.011524918207395451e+01,6.195341529012986575e+04
106,1.961966910093168939e-02,2.334521123524180026e-03,1.394943592674866944e-05,9.766388602196162338e+00,6.022157296595693333e+04
107,1.964616644130569995e-02,2.344496891374657846e-03,1.401809555909751061e-05,9.426851886971002514e+00,5.852238252279878361e+04
108,1.967277577366951039e-02,2.354172182086639031e-03,1.408593254575652059e-05,9.096526938405405716e+00,5.685530330176991265e+04
109,1.969949369670108072e-02,2.363545731686159026e-03,1.415293457943132000e-05,8.775350457118848979e+00,5.522099069706643058e+04
110,1.972631679684622857e-02,2.372616315273773802e-03,1.421908942408483005e-05,8.463204225772971157e+00,5.361902545447547163e+04
111,1.975324165055939926e-02,2.381382747659149032e-03,1.428438523297750036e-05,8.160004651677459364e+00,5.204991027762404701e+04
112,1.978026482398420952e-02,2.389843883035089930e-03,1.434881046468597938e-05,7.865620375519185359e+00,5.051345747169329843e+04
113,1.980738287335507067e-02,2.397998614942426117e-03,1.441235357011468931e-05,7.579926957650225283e+00,4.900966123768399120e+04
114,1.983459234621746947e-02,2.405845876442267925e-03,1.447500299372733074e-05,7.302777799236112699e+00,4.753836870460677164e+04
115,1.986188978415907858e-02,2.413384640648822809e-03,1.453674755326298944e-05,7.034055200093354721e+00,4.609991816502641450e+04
116,1.988927172394333934e-02,2.420613920686718115e-03,1.459757658113022991e-05,6.773584672316923516e+00,4.469362387548465631e+04
117,1.991673470019365844e-02,2.427532769958239134e-03,1.465748000800587943e-05,6.521237927780094701e+00,4.331982706171305472e+04
118,1.994427524915854885e-02,2.434140282523370152e-03,1.471644875416968936e-05,6.276826700497583289e+00,4.197784919813245506e+04
119,1.997188991255376828e-02,2.440435593235036095e-03,1.477447569516221040e-05,6.040222705641946632e+00,4.066784978363459231e+04
120,1.999957524410359011e-02,2.446417878196226886e-03,1.483155740723105003e-05,5.811219697986962807e+00,3.938925507280650345e+04
121,2.002732781851018079e-02,2.452086355245062989e-03,1.488769799173107054e-05,5.589694900502993669e+00,3.814182200564259983e+04
122,2.005514424786037156e-02,2.457440285141799900e-03,1.494291814232981056e-05,5.375359216648490701e+00,3.692619808074412140e+04
123,2.008302120321195025e-02,2.462478972437758071e-03,1.499727691943176932e-05,5.168044490272237113e+00,3.574071474842228054e+04
124,2.011095542288196883e-02,2.467201762453827968e-03,1.505091970153927916e-05,4.967383101279761348e+00,3.459195757410406077e+04
125,2.013894356675365038e-02,2.471608014964916163e-03,1.510413894244598991e-05,4.774004530376584121e+00,3.347594933885356295e+04
126,2.016698107612643898e-02,2.475696957928178940e-03,1.515701935321659067e-05,4.591420293731258262e+00,3.239216901889170185e+04
127,2.019505536285435068e-02,2.479466973788319994e-03,1.520421682509259975e-05,4.434236164471040631e+00,3.113950007501076470e+04
128,2.022548301862290079e-02,2.483283209306619103e-03,1.523742616481187986e-05,4.325227704222220915e+00,2.998179933772622826e+04
129,2.025894683221795070e-02,2.487391188951575127e-03,1.526263273074483009e-05,4.255990072500817512e+00,2.915577185048740284e+04
130,2.029383274434353943e-02,2.491673743792683065e-03,1.528891049019977865e-05,4.200258345427985596e+00,2.848123485869225624e+04
131,2.033020099382456050e-02,2.496138268679316818e-03,1.531630481797786926e-05,4.153486189952861452e+00,2.790481125060795239e+04
132,2.036811435415401134e-02,2.500792469613982195e-03,1.534486299811765040e-05,4.113130584190888506e+00,2.739904008919586704e+04
133,2.040763823866620016e-02,2.505644376663100897e-03,1.537463430311258991e-05,4.077573030052302094e+00,2.694678433721798865e+04
134,2.044884080994517975e-02,2.510702357387861999e-03,1.540567007632404010e-05,4.045546771578357514e+00,2.653450009235452308e+04
135,2.049179309362747850e-02,2.515975130814512156e-03,1.543802381770314041e-05,4.016289956118659354e+00,2.615484833752670238e+04
136,2.053656909676342124e-02,2.521471781964265864e-03,1.547175127294647979e-05,3.989016688963813895e+00,2.579981753457050945e+04
137,2.058324593090631038e-02,2.527201776963583068e-03,1.550691052621265862e-05,3.963337982944369564e+00,2.546706568337354111e+04
138,2.063190394010356102e-02,2.533174978756220184e-03,1.554356209653146010e-05,3.938767735852101826e+00,2.515051399871518879e+04
139,2.068262683396935100e-02,2.539401663439079006e-03,1.558176903804073992e-05,3.915100856137409657e+00,2.484913986892871981e+04
140,2.073550182602338157e-02,2.545892537244509850e-03,1.562159704418976115e-05,3.892054544437567820e+00,2.455796744349427900e+04
141,2.079061977748510037e-02,2.552658754192332034e-03,1.566311455605198059e-05,3.868976872039867398e+00,2.427129362174221023e+04
142,2.084807534671867871e-02,2.559711934435520819e-03,1.570639287489430106e-05,3.845941423442541751e+00,2.399234747024348326e+04
143,2.090796714452827082e-02,2.567064183324091996e-03,1.575150627915295159e-05,3.822628673677587408e+00,2.371784570603714383e+04
144,2.097039789550876956e-02,2.574728111212319821e-03,1.579853214597072141e-05,3.799044000062745230e+00,2.344777517513147541e+04
145,2.103547460566193919e-02,2.582716854035110952e-03,1.584755107745348872e-05,3.775168941160692793e+00,2.317967185819433507e+04
146,2.110330873649279848e-02,2.591044094679881803e-03,1.589864703180819030e-05,3.750879071371547635e+00,2.291233698799530248e+04
147,2.117401638580598128e-02,2.599724085180903001e-03,1.595190745952722016e-05,3.726102215538645179e+00,2.264593574391376023e+04
148,2.124771847542610004e-02,2.608771669763646200e-03,1.600742344478868102e-05,3.700780915033190510e+00,2.238029852168881553e+04
149,2.132454094607097103e-02,2.618202308767198037e-03,1.606528985224429042e-05,3.674881596123522165e+00,2.211516000104179329e+04
150,2.140461495961037963e-02,2.628032103473315183e-03,1.612560547937037903e-05,3.648374343462808866e+00,2.185012725929465523e+04
151,2.148807710894710954e-02,2.638277821871174919e-03,1.618847321456055933e-05,3.621228955750599443e+00,2.158478027932309487e+04
152,2.157506963576046044e-02,2.648956925387332788e-03,1.625400020114073021e-05,3.593364116743725134e+00,2.131812359625879981e+04
153,2.166574065635578153e-02,2.660087596610742795e-03,1.632229800748977950e-05,3.564718824802667108e+00,2.104945630232413168e+04
154,2.176024439586615039e-02,2.671688768043095023e-03,1.639348280345173900e-05,3.535155182589898359e+00,2.077857971006814478e+04
