,x,y,z,pressure-normalized,heat-flux-normalized
0,1.801630790102309865e-02,-5.627014944633021768e-05,5.627344569424899185e-05,6.664568005857367439e+01,2.691206378018770483e+05
1,1.802134985663528949e-02,-1.687389058943940950e-04,5.559350874797395938e-05,6.655692533356467777e+01,2.698896744191866601e+05
2,1.803145161825822976e-02,-2.808997751894697797e-04,5.478287156902865760e-05,6.612953614179188833e+01,2.676030856402926147e+05
3,1.804659489372820863e-02,-3.924890779464050160e-04,5.389697949304656736e-05,6.539629446819724023e+01,2.643522564732857281e+05
4,1.806674911733045091e-02,-5.032808759049835733e-04,5.294329162034711728e-05,6.438553355472926398e+01,2.607423350554941862e+05
5,1.809187432089547076e-02,-6.130529005783046364e-04,5.193271095088682244e-05,6.309983401391647106e+01,2.566705403011928138e+05
6,1.812192198159071066e-02,-7.215878720668671663e-04,5.087946303598083316e-05,6.153950255683024295e+01,2.520182672377523268e+05
7,1.815683616229895117e-02,-8.286747730568670570e-04,4.980118543967084117e-05,5.971610376584244761e+01,2.466910483672490809e+05
8,1.819655472425471890e-02,-9.341094523928147484e-04,4.871818655907097687e-05,5.765046299770629190e+01,2.406403430629957002e+05
9,1.824101047567115025e-02,-1.037694723420615108e-03,4.765159842856761313e-05,5.536889775489425602e+01,2.337935087154866196e+05
10,1.829013209637608134e-02,-1.139239732299767924e-03,4.662215935514361172e-05,5.290080918912578767e+01,2.262074832352633530e+05
11,1.834384475187946992e-02,-1.238558848357730049e-03,4.564992468828204966e-05,5.027747614046216995e+01,2.179767315353295417e+05
12,1.840207044288286881e-02,-1.335470494922136970e-03,4.475377594849183095e-05,4.753058862960774889e+01,2.090922037113813276e+05
13,1.846472802843943106e-02,-1.429795787556104947e-03,4.395276475152270330e-05,4.471140935791341064e+01,1.997202534412724781e+05
14,1.853172828569124922e-02,-1.521351004123489958e-03,4.327458522109504675e-05,4.186689698255987224e+01,1.902459422772066901e+05
15,1.860290479745528927e-02,-1.609865753973447082e-03,4.285161395612769111e-05,3.906627016975061650e+01,1.809152574176840135e+05
16,1.867753851332096954e-02,-1.694494863074343929e-03,4.341908527489842206e-05,3.600177403025620038e+01,1.690567675781258149e+05
17,1.875548596502048943e-02,-1.775167286651000917e-03,4.487659094721161785e-05,3.308108341159052657e+01,1.591318564823154593e+05
18,1.883716136489389098e-02,-1.852420654141692007e-03,4.640963613081947037e-05,3.026138464535766914e+01,1.487693576977755001e+05
19,1.892242770372186064e-02,-1.926086001697434975e-03,4.791384351623673821e-05,2.757334716884332337e+01,1.386851982644874079e+05
20,1.901109407416936084e-02,-1.995957404625726180e-03,4.937386680158956055e-05,2.495626917492417718e+01,1.283426970068708906e+05
21,1.910296595070854961e-02,-2.061849207922318832e-03,5.078158495314371700e-05,2.247300637134375378e+01,1.183632017495143227e+05
22,1.919784584813673950e-02,-2.123593831625756115e-03,5.212996742800101200e-05,2.009977696744428144e+01,1.082658726190479647e+05
23,1.929553223203533951e-02,-2.181038747292269892e-03,5.341283536277460970e-05,1.792499074490581989e+01,9.906495477838996158e+04
24,1.939581927069941938e-02,-2.234044863381320131e-03,5.462454325284834330e-05,1.586190886301486636e+01,8.970702758222878037e+04
25,1.949849703062858999e-02,-2.282485652843128845e-03,5.575927026961318702e-05,1.400069041611565268e+01,8.133780505733081372e+04
26,1.960335196375518133e-02,-2.326246588530722983e-03,5.681093242332060846e-05,1.226756441854426249e+01,7.308878713112273545e+04
27,1.971016776130810055e-02,-2.365224787003235123e-03,5.777373579985336242e-05,1.070965639208820619e+01,6.550681252171414963e+04
28,1.981872665509732886e-02,-2.399328733549439124e-03,5.864236016351236167e-05,9.294398802642218627e+00,5.840213091016055114e+04
29,1.992881208974801172e-02,-2.428478146484871949e-03,5.941202032624270284e-05,8.032629842050232227e+00,5.182602593499228533e+04
30,2.004021589984436927e-02,-2.452604037461259944e-03,6.007873593140993136e-05,6.904239911844742394e+00,4.608405128148039512e+04
31,2.015266075236847934e-02,-2.471637149241093061e-03,6.062980946793553673e-05,5.941835714751417363e+00,4.016196987140308192e+04
32,2.027893132612082136e-02,-2.488438743488476015e-03,6.108454774857623247e-05,5.394720602963852585e+00,3.544243166618113173e+04
33,2.043123955879352915e-02,-2.507125342462728987e-03,6.154386811918052184e-05,5.210426407112827896e+00,3.313277099781178549e+04
34,2.061111545516507160e-02,-2.529194231466364972e-03,6.208569135920554750e-05,5.080632757148565659e+00,3.155173823345390338e+04
35,2.082352493246023006e-02,-2.555254653489707085e-03,6.272544527841222568e-05,4.958687502076226217e+00,3.024260644073710864e+04
36,2.107431904120296920e-02,-2.586024468748727035e-03,6.348080371620069763e-05,4.827794902215183370e+00,2.905146725073970811e+04
37,2.137038802064906984e-02,-2.622349037351234900e-03,6.437252358020362024e-05,4.682421585004235887e+00,2.785685280534003687e+04
38,2.171984069641210921e-02,-2.665223227401656084e-03,6.542502790919313611e-05,4.521386688952740762e+00,2.665688065779568569e+04
39,2.213221280178882117e-02,-2.715816973690875127e-03,6.666703707182841264e-05,4.345248481621714731e+00,2.547080299735309382e+04
40,2.261870806588225924e-02,-2.775504856655861084e-03,6.813229519158140162e-05,4.153458307748668865e+00,2.424747368592306157e+04
41,2.319247607978200051e-02,-2.845900193650083981e-03,6.986040706200824491e-05,3.947237444993421107e+00,2.301889050277497154e+04
42,2.386893095215289126e-02,-2.928894134665629805e-03,7.189779789938021337e-05,3.731098470311265736e+00,2.182091593117094817e+04
43,2.466611451929424936e-02,-3.026700224399723853e-03,7.429880728250187294e-05,3.512698113556448121e+00,2.065768843047548944e+04
44,2.560510723134245062e-02,-3.141904813708591010e-03,7.712692668318636973e-05,3.305215433623201360e+00,1.953436810510902797e+04
45,2.671048862806230106e-02,-3.277523555162423913e-03,8.045618635985749456e-05,3.113882412452844584e+00,1.855014375549099350e+04
46,2.801084731942083891e-02,-3.437063972322290141e-03,8.437269134966188353e-05,2.931303986479939283e+00,1.758470404362776026e+04
47,2.953933727562351938e-02,-3.624593710739790111e-03,8.897629693892833056e-05,2.769195201612824508e+00,1.679449242869742739e+04
48,3.133427264586798738e-02,-3.844813515978675027e-03,9.438240017700482007e-05,2.629015843151187859e+00,1.610068213896197267e+04
49,3.343974680193387283e-02,-4.103133183785645684e-03,1.007238043520736936e-04,2.510414223150696955e+00,1.549795039603453370e+04
50,3.590625231245202220e-02,-4.405747624469579134e-03,1.081525863071771965e-04,2.431739690654048047e+00,1.505902975151151986e+04
51,3.879126668245928833e-02,-4.759708727021497339e-03,1.168418604081104020e-04,2.379693796219771951e+00,1.481085886814034166e+04
52,4.215975287050775788e-02,-5.172986767317254951e-03,1.269872864264063922e-04,2.339038222222757479e+00,1.456626428494568245e+04
53,4.608450508876576340e-02,-5.654512834177436754e-03,1.388081107285566980e-04,2.340580493715748833e+00,1.456183635704311018e+04
54,5.064624679195804668e-02,-6.214190851595928836e-03,1.525474614404211126e-04,2.362632462414167467e+00,1.454983824796981571e+04
55,5.593336279085887180e-02,-6.862864711866917614e-03,1.684715415045501101e-04,2.408228904409160709e+00,1.470953956300440768e+04
56,6.204112108821405874e-02,-7.612222802963759805e-03,1.868672853211284977e-04,2.473372859998548723e+00,1.508644931092628394e+04
57,6.907021785608355446e-02,-8.474619492477778251e-03,2.080379768960675935e-04,2.551969254191744696e+00,1.566225784792360719e+04
58,7.712446693719310353e-02,-9.462791653637208505e-03,2.322962890458913883e-04,2.638649388124312267e+00,1.645154111538047437e+04
59,8.630745855281510281e-02,-1.058944872363476973e-02,2.599542211109325809e-04,2.729352501551788546e+00,1.746287494521421104e+04
60,9.671805086090276560e-02,-1.186671956495951967e-02,2.913095208574598767e-04,2.817676713147839962e+00,1.852425297506875722e+04
61,1.084446355335758061e-01,-1.330544891171961050e-02,3.266284120412245220e-04,2.890629921913561162e+00,1.942209120531836379e+04
62,1.215582480864163956e-01,-1.491435207904522921e-02,3.661248441198850000e-04,2.947170537757595632e+00,2.002512235694675110e+04
63,1.361047835002897055e-01,-1.669905990129728901e-02,4.099370465104581118e-04,2.989120193968341166e+00,2.033754924509924967e+04
64,1.520968120762178910e-01,-1.866111462299457902e-02,4.581028793452440804e-04,3.022217576827197050e+00,2.050336051468216101e+04
65,1.695057463243556106e-01,-2.079700885799320997e-02,5.105362410012715844e-04,3.036635681507426909e+00,2.047178376702628884e+04
66,1.882553333272994900e-01,-2.309738717049911877e-02,5.670074678392769902e-04,3.041428640182626264e+00,2.032038170218373489e+04
67,2.082175715550489137e-01,-2.554654511093366887e-02,6.271310366062154106e-04,3.048923843525069177e+00,2.015141144083521431e+04
68,2.292121038890025941e-01,-2.812235474634602883e-02,6.903637360090256886e-04,3.045813184058509648e+00,1.991061639253229441e+04
69,2.510098656351514856e-01,-3.079671223347588832e-02,7.560156541110753812e-04,3.039902555753277280e+00,1.966010943603781561e+04
70,2.733412669115616866e-01,-3.353654171216108315e-02,8.232748225774630998e-04,3.035780607074362258e+00,1.941543200178268307e+04
71,2.959085264106399160e-01,-3.630530852904498285e-02,8.912443643005558882e-04,3.036504664138114595e+00,1.920807038087591354e+04
72,3.184010806955582806e-01,-3.906490979713286849e-02,9.589889041192028183e-04,3.036543806819995694e+00,1.901486338863199489e+04
73,3.405124362634481261e-01,-4.177774196777853111e-02,1.025585324957225923e-03,3.034120828664270242e+00,1.882554987169786182e+04
74,3.619565590170714109e-01,-4.440871164752054762e-02,1.090172130699553973e-03,3.028991359542800410e+00,1.863482497281782344e+04
75,3.824819839360557028e-01,-4.692696670723905950e-02,1.151991942618126995e-03,3.026218588146383670e+00,1.846873634359479911e+04
76,4.018822516731198058e-01,-4.930717674340238943e-02,1.210422932993627946e-03,3.027234206391446580e+00,1.833888338812060829e+04
77,4.200019219065033171e-01,-5.153027085353079767e-02,1.264996936534585996e-03,3.029201591836002461e+00,1.822591064262900909e+04
78,4.367381111559404117e-01,-5.358362631016833771e-02,1.315404082192174993e-03,3.030754553619957825e+00,1.812835588267232379e+04
79,4.520380999201126238e-01,-5.546077498160822267e-02,1.361485586754043959e-03,3.032352323865439292e+00,1.805729252569057280e+04
80,4.661866526865531268e-01,-5.719665449550095232e-02,1.404099080985195995e-03,3.031188150770638856e+00,1.791456192045150601e+04
81,4.799090389457835171e-01,-5.888024783623292679e-02,1.445428977877447974e-03,3.029945698971973300e+00,1.785202952468139847e+04
82,4.936314252050157947e-01,-6.056384117696902297e-02,1.486758874740140048e-03,3.028338580939371472e+00,1.777348920809859919e+04
83,5.073538114642479613e-01,-6.224743451771189151e-02,1.528088771573280023e-03,3.026542618866761902e+00,1.769161405349756751e+04
84,5.210761977234801279e-01,-6.393102785845088121e-02,1.569418668376849034e-03,3.024926827467310009e+00,1.761119702477355168e+04
85,5.347985839827105181e-01,-6.561462119919131419e-02,1.610748565150852069e-03,3.024067120842523604e+00,1.753755270344778910e+04
86,5.485209702419338029e-01,-6.729821453993677094e-02,1.652078461895286092e-03,3.023183635297292060e+00,1.746455709833996661e+04
87,5.622433565011641932e-01,-6.898180788068365710e-02,1.693408358610145031e-03,3.022196693863098194e+00,1.739263167496360620e+04
88,5.759657427603964708e-01,-7.066540122142934977e-02,1.734738255295441029e-03,3.021694436668343808e+00,1.732355370151469469e+04
89,5.896881290196250847e-01,-7.234899456217382119e-02,1.776068151951187097e-03,3.022005995598267880e+00,1.726090984684255091e+04
90,6.034105152788590276e-01,-7.403258790292420455e-02,1.817398048577350059e-03,3.022958528729465577e+00,1.720110044120144084e+04
91,6.171329015380913052e-01,-7.571618124367691938e-02,1.858727945173934901e-03,3.024788970956458378e+00,1.714873002468059349e+04
92,6.308552877973199191e-01,-7.739977458442751090e-02,1.900057841740975017e-03,3.026968171403882302e+00,1.709758543399022165e+04
93,6.445776740565503093e-01,-7.908336792517958735e-02,1.941387738278446988e-03,3.028402555949154973e+00,1.704558353143818749e+04
94,6.583000603157771469e-01,-8.076696126593665981e-02,1.982717634786353850e-03,3.028091478530445801e+00,1.698684317917406588e+04
95,6.720224465750094245e-01,-8.245055460669695191e-02,2.024047531264693868e-03,3.026966998310841817e+00,1.692573751538500801e+04
96,6.857448328342452548e-01,-8.413414794745782688e-02,2.065377427713465091e-03,3.025086291442843134e+00,1.686244572719750067e+04
97,6.994672190934757561e-01,-8.581774128821750836e-02,2.106707324132663182e-03,3.022699014746621504e+00,1.679810068969809799e+04
98,7.131896053527044810e-01,-8.750133462897594083e-02,2.148037220522295079e-03,3.020030177277774008e+00,1.673437086679392087e+04
99,7.269119916119329838e-01,-8.918492796973848113e-02,2.189367116882365120e-03,3.017061534519457577e+00,1.667115424136280490e+04
100,7.406343778711632631e-01,-9.086852131050067449e-02,2.230697013212868101e-03,3.015177044067321788e+00,1.661317618094713907e+04
101,7.543567641303919880e-01,-9.255211465126260417e-02,2.272026909513800985e-03,3.015735959147946232e+00,1.656893758773977970e+04
102,7.680791503896240435e-01,-9.423570799203308257e-02,2.313356805785166809e-03,3.017699529990192531e+00,1.653114154667078037e+04
103,7.818015366488507700e-01,-9.591930133280320014e-02,2.354686702026975980e-03,3.020777673870752800e+00,1.650055320373305949e+04
104,7.955239229080778296e-01,-9.760289467357391446e-02,2.396016598239215055e-03,3.023946589068120527e+00,1.647061142269158881e+04
105,8.092463091673155473e-01,-9.928648801434343529e-02,2.437346494421887937e-03,3.026727112233069672e+00,1.643848728377677617e+04
106,8.229686954265442722e-01,-1.009700813551134974e-01,2.478676390574998962e-03,3.028341003250322405e+00,1.640267245130028823e+04
107,8.366910816857727751e-01,-1.026536746958912061e-01,2.520006286698520809e-03,3.027961507484482340e+00,1.635854617972566666e+04
108,8.504134679450067180e-01,-1.043372680366668054e-01,2.561336182792469957e-03,3.026683246277946715e+00,1.631107163934367964e+04
109,8.641358542042354429e-01,-1.060208613774404063e-01,2.602666078856882836e-03,3.024717311602696856e+00,1.626089875127099003e+04
110,8.778582404634676095e-01,-1.077044547182206963e-01,2.643995974891727788e-03,3.022509951648741033e+00,1.621031613713024308e+04
111,8.915806267226997761e-01,-1.093880480590024018e-01,2.685325870897007847e-03,3.020467597268895243e+00,1.616151698892600507e+04
112,9.053030129819283900e-01,-1.110716413997812069e-01,2.726655766872720845e-03,3.018857530735636008e+00,1.611578058938991126e+04
113,9.190253992411587802e-01,-1.127552347405641059e-01,2.767985662818862012e-03,3.017524337535212098e+00,1.607213507761034634e+04
114,9.327477855003853957e-01,-1.144388280813510989e-01,2.809315558735430048e-03,3.016407643756862544e+00,1.602996732695377978e+04
115,9.464701717596157859e-01,-1.161224214221386053e-01,2.850645454622444033e-03,3.015688680578338055e+00,1.599074843611448887e+04
116,9.601925580188481746e-01,-1.178060147629268056e-01,2.891975350479891824e-03,3.014923963041043375e+00,1.595179627720585813e+04
117,9.739149442780772326e-01,-1.194896081037119945e-01,2.933305246307756076e-03,3.014090041490138372e+00,1.591378964891894429e+04
118,9.876373305373109535e-01,-1.211732014444976968e-01,2.974635142106071047e-03,3.013132806513004525e+00,1.587513925742648644e+04
119,1.001359716796542898e+00,-1.228567947852910042e-01,3.015965037874818958e-03,3.013062339340595752e+00,1.584192323066384597e+04
120,1.015082103055771956e+00,-1.245403881260841034e-01,3.057294933613982028e-03,3.013447435228194582e+00,1.581044117003826250e+04
121,1.028804489315001902e+00,-1.262239814668769111e-01,3.098624829323571965e-03,3.014438308517632059e+00,1.578255357609815292e+04
122,1.042526875574230960e+00,-1.279075748076728136e-01,3.139954725003600046e-03,3.016143473835408262e+00,1.575781831540939675e+04
123,1.056249261833462905e+00,-1.295911681484719913e-01,3.181284620654084051e-03,3.018620735499001562e+00,1.573724282508978831e+04
124,1.069971648092697070e+00,-1.312747614892743886e-01,3.222614516275007935e-03,3.021454650252695107e+00,1.571844289598788419e+04
125,1.083694034351927016e+00,-1.329583548300737883e-01,3.263944411866366926e-03,3.024698274973500745e+00,1.570064154191792659e+04
126,1.097416420611150967e+00,-1.346419481708739097e-01,3.305274307428131969e-03,3.025183520159355322e+00,1.567310504803717049e+04
127,1.111138806870380025e+00,-1.363255415116798042e-01,3.346604202960336023e-03,3.011696825679924583e+00,1.578063112052806900e+04
128,1.126282288295703982e+00,-1.371673381820970872e-01,3.367269150441732847e-03,1.566831638678044980e+00,8.923662790068297909e+03
129,1.142581966275461935e+00,-1.371673381821240101e-01,3.367269149895971061e-03,1.416782575522044230e+00,7.861943188267241567e+03
130,1.158360633294942987e+00,-1.371673381821499060e-01,3.367269149367657990e-03,1.317264026473731198e+00,7.273338766403066984e+03
131,1.173635581206531997e+00,-1.371673381821749971e-01,3.367269148856208167e-03,1.252661107935930884e+00,6.889843186419008816e+03
132,1.188423549836479909e+00,-1.371673381821993110e-01,3.367269148361050866e-03,1.205520146168578943e+00,6.608140233195430483e+03
133,1.202740745330082017e+00,-1.371673381822229032e-01,3.367269147881644855e-03,1.169325422827554917e+00,6.391809120505595274e+03
134,1.216602857912038926e+00,-1.371673381822456905e-01,3.367269147417513084e-03,1.141403755760388883e+00,6.224474042388986163e+03
135,1.230025079081360051e+00,-1.371673381822678117e-01,3.367269146968067048e-03,1.120206621550950077e+00,6.096365886531680189e+03
136,1.243022118259738962e+00,-1.371673381822892113e-01,3.367269146532850949e-03,1.103925357544817132e+00,5.997073342970537851e+03
137,1.255608218911627105e+00,-1.371673381823098892e-01,3.367269146111440212e-03,1.090912068985195438e+00,5.917284887533784058e+03
138,1.267797174153658890e+00,-1.371673381823299009e-01,3.367269145703323096e-03,1.080225691065689109e+00,5.851507486474816687e+03
139,1.279602341870522020e+00,-1.371673381823493021e-01,3.367269145308035127e-03,1.071449240422264637e+00,5.796898684413264164e+03
140,1.291036659349733995e+00,-1.371673381823680926e-01,3.367269144925159972e-03,1.064301013578300426e+00,5.752481511217151819e+03
141,1.302112657501768078e+00,-1.371673381823864113e-01,3.367269144554299945e-03,1.058499530587375226e+00,5.716077906504622661e+03
142,1.312842474469769094e+00,-1.371673381824040083e-01,3.367269144195043917e-03,1.053763598728735040e+00,5.685986374619305934e+03
143,1.323237869059453953e+00,-1.371673381824211058e-01,3.367269143846982060e-03,1.049863375687646316e+00,5.660913633851050690e+03
144,1.333310233646360032e+00,-1.371673381824377036e-01,3.367269143509711918e-03,1.046621936830899990e+00,5.639853979504142444e+03
145,1.343070606543965928e+00,-1.371673381824536908e-01,3.367269143182873969e-03,1.043907226494827256e+00,5.622031359427730422e+03
146,1.352529684117959041e+00,-1.371673381824692894e-01,3.367269142866142085e-03,1.041636911306538904e+00,5.606971760239757714e+03
147,1.361697832535796016e+00,-1.371673381824843885e-01,3.367269142559172791e-03,1.039734279906278314e+00,5.594198800065502837e+03
148,1.370585099205825941e+00,-1.371673381824989879e-01,3.367269142261610036e-03,1.038147604705353944e+00,5.583396205841690971e+03
149,1.379201223756119088e+00,-1.371673381825131988e-01,3.367269141973116848e-03,1.036834198347921676e+00,5.574312875774054191e+03
150,1.387555648582742052e+00,-1.371673381825269100e-01,3.367269141693377075e-03,1.035744260926493521e+00,5.566647303728132101e+03
151,1.395657529262313012e+00,-1.371673381825402882e-01,3.367269141422074997e-03,1.034828919466109332e+00,5.560119491576133441e+03
152,1.403515744675216892e+00,-1.371673381825531945e-01,3.367269141158953007e-03,1.034046062952280742e+00,5.554469577358704555e+03
153,1.411138906631109080e+00,-1.371673381825657123e-01,3.367269140903723142e-03,1.033369441793851484e+00,5.549570790667426081e+03
