,x,y,z,pressure-normalized,heat-flux-normalized
0,1.801440995437411999e-02,-2.822251888054063093e-05,2.822253506751827896e-05,6.654892530335852996e+01,2.732693894368503243e+05
1,1.801568167722950031e-02,-8.467203087751261521e-05,2.805763818015513038e-05,6.662269337035201033e+01,2.752557408234432223e+05
2,1.801822827763625151e-02,-1.410962622662436132e-04,2.786097988569927856e-05,6.658603322289022231e+01,2.758100279675998027e+05
3,1.802204890790614841e-02,-1.974470098510736874e-04,2.765666624585533058e-05,6.645812266391666867e+01,2.757687744100916898e+05
4,1.802714158059089133e-02,-2.536962155836675948e-04,2.744451866318716043e-05,6.625888555086430642e+01,2.749095621315517928e+05
5,1.803350367987905170e-02,-3.098155208796086113e-04,2.722445686899758861e-05,6.597460272406118520e+01,2.733447731577064260e+05
6,1.804113194640129952e-02,-3.657763827005455185e-04,2.699671442841547860e-05,6.566383209456029135e+01,2.686677342237258563e+05
7,1.805002247929703846e-02,-4.215502923414083791e-04,2.676169566183732952e-05,6.527053772485037086e+01,2.656347008734933916e+05
8,1.806017074577812020e-02,-4.771088578576741790e-04,2.651992015016774854e-05,6.480382342144922347e+01,2.627899773880862631e+05
9,1.807157158969573130e-02,-5.324238486250436851e-04,2.627195935484670931e-05,6.430966994674149362e+01,2.587692128847816784e+05
10,1.808421924522797888e-02,-5.874672236339942896e-04,2.601844630366543896e-05,6.365104551099421570e+01,2.579171827058979252e+05
11,1.809810735451354916e-02,-6.422111706045755593e-04,2.576012884649308995e-05,6.292770149427747128e+01,2.560605650851068203e+05
12,1.811322898912880869e-02,-6.966281394126468173e-04,2.549787280768096070e-05,6.213492444801623549e+01,2.538338287008340703e+05
13,1.812957666578707966e-02,-7.506908569660643380e-04,2.523260642056337054e-05,6.127538973454403504e+01,2.513265087717862625e+05
14,1.814714236193111854e-02,-8.043723273416904587e-04,2.496532017518322984e-05,6.035219349375885400e+01,2.485807695423117548e+05
15,1.816591754234525916e-02,-8.576458675401646848e-04,2.469710336285451093e-05,5.936767773154782191e+01,2.456015975312380760e+05
16,1.818589317886267973e-02,-9.104851144816209548e-04,2.442910818475314068e-05,5.832417919047175303e+01,2.423814706526147784e+05
17,1.820705976462838951e-02,-9.628640230853103719e-04,2.416244630452095866e-05,5.722564094268381751e+01,2.389385591228473641e+05
18,1.822940732562211910e-02,-1.014756853164360895e-03,2.389818031698880881e-05,5.607741037283587104e+01,2.353142369424635253e+05
19,1.825292544135507025e-02,-1.066138178320401959e-03,2.363739633632976040e-05,5.488293799540890916e+01,2.315305554767387221e+05
20,1.827760325492202090e-02,-1.116982874714244917e-03,2.338119336971770102e-05,5.364480478222638737e+01,2.275968728714434546e+05
21,1.830342948170329137e-02,-1.167266111988727022e-03,2.313063235853122089e-05,5.236563228271848658e+01,2.235227071323818818e+05
22,1.833039240188017935e-02,-1.216963318554951023e-03,2.288671184693250848e-05,5.104998355397411558e+01,2.193100221283262654e+05
23,1.835847986716405977e-02,-1.266050177378527999e-03,2.265039375808124023e-05,4.970132886800860916e+01,2.149613345042715955e+05
24,1.838767930475693896e-02,-1.314502623375398988e-03,2.242260320586654936e-05,4.832326065535855264e+01,2.104705804526775028e+05
25,1.841797774889433054e-02,-1.362296879324601017e-03,2.220426960999916127e-05,4.692212079228160349e+01,2.058487048517467629e+05
26,1.844936179643536997e-02,-1.409409378542771053e-03,2.199635684960630922e-05,4.550296528343383784e+01,2.011286220420264581e+05
27,1.848181748615965875e-02,-1.455816592182562937e-03,2.179999602140101963e-05,4.406815485406135480e+01,1.963457898598591564e+05
28,1.851533010673515889e-02,-1.501494810388761007e-03,2.161686401633724065e-05,4.261662654218010715e+01,1.914471919154154893e+05
29,1.854988379731280917e-02,-1.546419703537925015e-03,2.145025982295218150e-05,4.116029139130690595e+01,1.864239313035119267e+05
30,1.858545996514535115e-02,-1.590564553347047910e-03,2.130813304079967000e-05,3.971067082462280240e+01,1.813359877981277241e+05
31,1.862201873762367108e-02,-1.633879048058510053e-03,2.123141871263519915e-05,3.834968538201025012e+01,1.770041146440895100e+05
32,1.865943874482377945e-02,-1.676226602533919087e-03,2.136872370551224146e-05,3.667889106951206202e+01,1.708842377427965403e+05
33,1.869770762487027102e-02,-1.717605405069901970e-03,2.170337983828081888e-05,3.530574188070907837e+01,1.662205361323850229e+05
34,1.873691043454289024e-02,-1.758120244255029999e-03,2.207537403521088955e-05,3.384713555219392589e+01,1.611051293639134674e+05
35,1.877704245440614886e-02,-1.797765073930516003e-03,2.245092904261286026e-05,3.240907662849173221e+01,1.558814412374868698e+05
36,1.881808231213236149e-02,-1.836515723096702893e-03,2.282494089780953163e-05,3.099372439961518211e+01,1.506194702732777805e+05
37,1.886000773537188993e-02,-1.874348413874914014e-03,2.319553329196277899e-05,2.960155471280076256e+01,1.453134687637980387e+05
38,1.890279611939255089e-02,-1.911240349959311994e-03,2.356183364223723883e-05,2.824982350953551702e+01,1.400844979238522938e+05
39,1.894642455480417126e-02,-1.947169686347305926e-03,2.392334576008778153e-05,2.692504233722250007e+01,1.349510569749350543e+05
40,1.899086981785939876e-02,-1.982115465159578829e-03,2.427973138062818900e-05,2.561787265012530312e+01,1.298490253154463426e+05
41,1.903610842243615847e-02,-2.016057605232257025e-03,2.463065652246581981e-05,2.433781442098472780e+01,1.247677259893900919e+05
42,1.908211662766253966e-02,-2.048976858945841199e-03,2.497576889578963900e-05,2.309387175869953523e+01,1.197420562844966771e+05
43,1.912887038081172858e-02,-2.080854727193329028e-03,2.531474220758024167e-05,2.188704286321134163e+01,1.148016006235813547e+05
44,1.917634532504130032e-02,-2.111673435560344845e-03,2.564728197704019109e-05,2.071502127126093740e+01,1.099512802087879390e+05
45,1.922451677051752877e-02,-2.141415893443048089e-03,2.597310678027676972e-05,1.957719185739603418e+01,1.051846922998811788e+05
46,1.927335971016973931e-02,-2.170065686266747090e-03,2.629194445592286845e-05,1.847530889244124097e+01,1.005022378086976823e+05
47,1.932284884190961158e-02,-2.197607074318042031e-03,2.660354149868226120e-05,1.741174161472448745e+01,9.591081287771079224e+04
48,1.937295857473873839e-02,-2.224024981324861875e-03,2.690764726783880924e-05,1.638817562260727811e+01,9.141871073446405353e+04
49,1.942366303195327062e-02,-2.249304986096030932e-03,2.720398137154716062e-05,1.540558170400628590e+01,8.703596745290658146e+04
50,1.947493604676707110e-02,-2.273433310617493149e-03,2.749223428267173061e-05,1.446502179596135740e+01,8.277890241475211224e+04
51,1.952675122162670848e-02,-2.296396838898059987e-03,2.777210010187216937e-05,1.356539119632518187e+01,7.863964864503277931e+04
52,1.957908192015741025e-02,-2.318183103288492045e-03,2.804328458632518047e-05,1.270615515387800798e+01,7.462486950815335149e+04
53,1.963190127794987860e-02,-2.338780279790562185e-03,2.830550043767136856e-05,1.188683309927439780e+01,7.073817887715240067e+04
54,1.968518225212631881e-02,-2.358177199617647862e-03,2.855846665723853030e-05,1.110677942083856884e+01,6.698014113178069238e+04
55,1.973889762367079040e-02,-2.376363339023794975e-03,2.880191559287418980e-05,1.036536604240845350e+01,6.335095999221927195e+04
56,1.979302006598621100e-02,-2.393328830581394149e-03,2.903559271993147095e-05,9.662072987781675337e+00,5.985089088517219352e+04
57,1.984752217130281854e-02,-2.409064456885995006e-03,2.925925434478383999e-05,8.996416923662883036e+00,5.648170758278923313e+04
58,1.990237653654191100e-02,-2.423561654355456830e-03,2.947267018862959002e-05,8.367812935907661398e+00,5.324556955581592047e+04
59,1.995755595172679989e-02,-2.436812532653518954e-03,2.967563940120203873e-05,7.775229649788715669e+00,5.014302458649760229e+04
60,2.001303364946127941e-02,-2.448809879104156800e-03,2.986803777131371142e-05,7.217420789674507731e+00,4.717747408403432928e+04
61,2.006878392496802901e-02,-2.459547192743017155e-03,3.004999500612260988e-05,6.693120340084120379e+00,4.434686709944347240e+04
62,2.012478221229463057e-02,-2.469018555688096139e-03,3.022227017858967164e-05,6.203166827814605711e+00,4.165788356049256254e+04
63,2.018096979932460996e-02,-2.477214377695221171e-03,3.037680085481286044e-05,5.761066394787524025e+00,3.885710886673191999e+04
64,2.024256307544206046e-02,-2.485099232844763164e-03,3.049794058032942898e-05,5.487840141017440665e+00,3.627969850841004518e+04
65,2.031239513857386117e-02,-2.493670767372772011e-03,3.060320716223391223e-05,5.367846161233482682e+00,3.477491854937842436e+04
66,2.038828727240539138e-02,-2.502986146851291990e-03,3.071753738726931118e-05,5.276104485424750301e+00,3.361243866856743989e+04
67,2.047076344060059019e-02,-2.513109683767647019e-03,3.084177882283978880e-05,5.201688965950927113e+00,3.267040722675816505e+04
68,2.056039255847246991e-02,-2.524111209479013018e-03,3.097679476400610847e-05,5.136267606208680725e+00,3.186283533885575162e+04
69,2.065779228647753041e-02,-2.536066538700177796e-03,3.112351618453813325e-05,5.075055448244125245e+00,3.114166730986167022e+04
70,2.076363313192923152e-02,-2.549057972849402137e-03,3.128295316795828840e-05,5.014372604094753605e+00,3.046032321499958562e+04
71,2.087864288120399106e-02,-2.563174844059768788e-03,3.145620204369137322e-05,4.952293100071553766e+00,2.980891983406694271e+04
72,2.100361138916486889e-02,-2.578514103065700138e-03,3.164445263671621859e-05,4.887859027477669649e+00,2.918432306911457272e+04
73,2.113939574863286930e-02,-2.595180953724528922e-03,3.184899605816572053e-05,4.821143449266133807e+00,2.857522768113357233e+04
74,2.128692586859080166e-02,-2.613289537704159820e-03,3.207123310829908724e-05,4.750394616537351844e+00,2.796433728517672353e+04
75,2.144721048857048049e-02,-2.632963672741480028e-03,3.231268333646445138e-05,4.675972763662440634e+00,2.734758486735336919e+04
76,2.162134365850236842e-02,-2.654337647986818819e-03,3.257499480224655035e-05,4.597231021903361636e+00,2.672495027991876123e+04
77,2.181051171428774124e-02,-2.677557080230279999e-03,3.285995458336759086e-05,4.513485090266541988e+00,2.609233663844093098e+04
78,2.201600078019912143e-02,-2.702779834802074028e-03,3.316950007717984117e-05,4.425592817059032846e+00,2.546332437373885841e+04
79,2.223920482972262941e-02,-2.730177014966356144e-03,3.350573114351359003e-05,4.333143165799738128e+00,2.482379508983100823e+04
80,2.248163433733791836e-02,-2.759934023903759959e-03,3.387092313711561063e-05,4.236893303611111605e+00,2.417681353825408223e+04
81,2.274492555213283168e-02,-2.792251703005330966e-03,3.426754087784395322e-05,4.137890627754206463e+00,2.352737072916650868e+04
82,2.303085042574639849e-02,-2.827347550464316076e-03,3.469825360596166239e-05,4.036717618529040763e+00,2.287799831078285206e+04
83,2.334132722480930164e-02,-2.865457023919465007e-03,3.516595096818706987e-05,3.933481372078872607e+00,2.223096302751591429e+04
84,2.367843185604657022e-02,-2.906834930526520054e-03,3.567376007737019282e-05,3.827708836927897096e+00,2.158121640745171317e+04
85,2.404440992891923937e-02,-2.951756907609313051e-03,3.622506368455127764e-05,3.719692677123695557e+00,2.093859912821234684e+04
86,2.444168958010750972e-02,-3.000520996802456992e-03,3.682351949646174084e-05,3.610196726858796890e+00,2.030207665572387850e+04
87,2.487289507435693978e-02,-3.053449313462503097e-03,3.747308066388580698e-05,3.500787450314887028e+00,1.967084533426604321e+04
88,2.534086119261329956e-02,-3.110889812763454124e-03,3.817801745641580849e-05,3.393524575174065028e+00,1.905664308586486004e+04
89,2.584864841063452129e-02,-3.173218152797465004e-03,3.894294012654846268e-05,3.289689553665883004e+00,1.846801797856157282e+04
90,2.639955885763043894e-02,-3.240839653403564027e-03,3.977282295031622810e-05,3.188711041219549180e+00,1.790464096765259092e+04
91,2.699715303627681084e-02,-3.314191348463291827e-03,4.067302941223644884e-05,3.089524083976204594e+00,1.735788470896268700e+04
92,2.764526726320468142e-02,-3.393744126639031914e-03,4.164933847866451042e-05,2.993026787669667232e+00,1.683470700863912134e+04
93,2.834803177592434137e-02,-3.480004953924017985e-03,4.270797187502928932e-05,2.901882149399831690e+00,1.632084248970998487e+04
94,2.910988942935928067e-02,-3.573519168535300994e-03,4.385562224822110196e-05,2.818822639851924272e+00,1.585188155543177345e+04
95,2.993561487357208895e-02,-3.674872834870767171e-03,4.509948205478557759e-05,2.745072089581917840e+00,1.542297133155538359e+04
96,3.083033407262645090e-02,-3.784695139363465893e-03,4.644727296779381287e-05,2.678227655174692856e+00,1.504350702383306270e+04
97,3.179954399866845305e-02,-3.903660807840935842e-03,4.790727553946234771e-05,2.615747939553696444e+00,1.470545854763536408e+04
98,3.284913227703591815e-02,-4.032492516851879372e-03,4.948835879192271076e-05,2.556597391834042998e+00,1.439352890820215180e+04
99,3.398539650517488214e-02,-4.171963264969195777e-03,5.120000933419105801e-05,2.501983017204925996e+00,1.409739145831888891e+04
100,3.521506295930401653e-02,-4.322898668941711417e-03,5.305235951860190030e-05,2.454198129866437483e+00,1.381713859543168473e+04
101,3.654530425805564003e-02,-4.486179131810087879e-03,5.505621405412558300e-05,2.415240020260995824e+00,1.356358743478470569e+04
102,3.798375552149305806e-02,-4.662741826357553326e-03,5.722307438662734165e-05,2.385818018365896354e+00,1.334062994939221608e+04
103,3.953852857695627776e-02,-4.853582438802915393e-03,5.956516003708685726e-05,2.364783210459261209e+00,1.315814196045379504e+04
104,4.121822348048229806e-02,-5.059756582990327343e-03,6.209542595838639573e-05,2.347711144807742567e+00,1.299435319827038256e+04
105,4.303193657482415335e-02,-5.282380789465770249e-03,6.482757483017374377e-05,2.335775336234447774e+00,1.285013009569852511e+04
106,4.498926466059238738e-02,-5.522633017485240568e-03,6.777606306104935275e-05,2.328103888672010235e+00,1.269205815418057864e+04
107,4.710030379208728774e-02,-5.781752507199797164e-03,7.095609911023484687e-05,2.331869760298327154e+00,1.262470782614253221e+04
108,4.937564185846574777e-02,-6.061038869018453047e-03,7.438363258039412240e-05,2.342634888621220046e+00,1.249021963464598048e+04
109,5.182634441983564877e-02,-6.361850345064539065e-03,7.807533237408862011e-05,2.360123157480284117e+00,1.239501021961858532e+04
110,5.446393157409942093e-02,-6.685600969712846356e-03,8.204855205475898713e-05,2.383318880849953469e+00,1.231987610357750600e+04
111,5.730034494299936915e-02,-7.033756517281736925e-03,8.632128041721392000e-05,2.411080618503794959e+00,1.224707564032010123e+04
112,6.034790386787135252e-02,-7.407829125271315346e-03,9.091207516227111426e-05,2.442905758956525286e+00,1.216907554887598781e+04
113,6.361924867266774419e-02,-7.809370330190920986e-03,9.583997749759851829e-05,2.478711856566218064e+00,1.208422465222525716e+04
114,6.712726994804886493e-02,-8.239962387542855426e-03,1.011244054662656003e-04,2.518387168274541121e+00,1.199579939604014544e+04
115,7.088502198945040300e-02,-8.701207646769505005e-03,1.067850238523225981e-04,2.560948405233425706e+00,1.189702632721208101e+04
116,7.490561957046154573e-02,-9.194715880698259985e-03,1.128415886470197991e-04,2.604931894596208330e+00,1.178382468685116146e+04
117,7.920211679616023792e-02,-9.722089415405076387e-03,1.193137642997184995e-04,2.648829716366053688e+00,1.165271688970288596e+04
118,8.378736659200791692e-02,-1.028490588317028040e-02,1.262209123438609896e-04,2.691398214791577370e+00,1.150127309746132596e+04
119,8.867386089394602156e-02,-1.088469860662405995e-02,1.335818505000328890e-04,2.731767743519627256e+00,1.132864976033378662e+04
120,9.387355117573575880e-02,-1.152293456937496935e-02,1.414145820320530044e-04,2.769292948226348638e+00,1.113808967750158627e+04
121,9.939764914022976294e-02,-1.220098995183640025e-02,1.497359959809170049e-04,2.803776915913457568e+00,1.093051878972359737e+04
122,1.052564093325596001e-01,-1.292012344810032978e-02,1.585615399314354874e-04,2.835199255187129452e+00,1.070844113992316488e+04
123,1.114588961129241024e-01,-1.368144766303574025e-02,1.679048681741630096e-04,2.863614945947952073e+00,1.047647815149045164e+04
124,1.180127363024344039e-01,-1.448589875076813915e-02,1.777774694953190078e-04,2.889008489091745346e+00,1.023747242526681839e+04
125,1.249238620746730005e-01,-1.533420485591393927e-02,1.881882803294244089e-04,2.911396732439951229e+00,9.993400855485411739e+03
126,1.321962498494861082e-01,-1.622685406412081865e-02,1.991432905956303098e-04,2.930992680029137709e+00,9.747206290726577208e+03
127,1.398316594766401133e-01,-1.716406238813533019e-02,2.106451511430100000e-04,2.948155995677091745e+00,9.501440134790524098e+03
128,1.478293814694260910e-01,-1.814574274200627876e-02,2.226927932670842920e-04,2.963184177433743294e+00,9.258367521198155373e+03
129,1.561860003565430921e-01,-1.917147589372998964e-02,2.352810721274571095e-04,2.976115411720074544e+00,9.018940751691183323e+03
130,1.648951827593264086e-01,-2.024048445277673927e-02,2.484004469789219947e-04,2.986836454103660277e+00,8.783354474743042374e+03
131,1.739474982707857054e-01,-2.135161088387025133e-02,2.620367118035355977e-04,2.995295740234640736e+00,8.551903060754026228e+03
132,1.833302826955909015e-01,-2.250330072039757878e-02,2.761707900785901238e-04,3.001400635361929581e+00,8.324910850641006618e+03
133,1.930275542727465099e-01,-2.369359228118381872e-02,2.907786069276992874e-04,3.005021818267253675e+00,8.104137340260886958e+03
134,2.030199876797462999e-01,-2.492011347958788051e-02,3.058310506979930107e-04,3.005985612501014703e+00,7.885886058948284699e+03
135,2.132849542105972052e-01,-2.618008675518251893e-02,3.212940340421480785e-04,3.005899874252170978e+00,7.675000297431814943e+03
136,2.237966337220821944e-01,-2.747034281460139851e-02,3.371286618664843236e-04,3.006164270340287548e+00,7.477242797132547821e+03
137,2.345261995135232980e-01,-2.878734332457814904e-02,3.532915101002528794e-04,3.005912220126284229e+00,7.290684964962531012e+03
138,2.454420769918601031e-01,-3.012721266180864998e-02,3.697350152737061244e-04,3.004973127499438679e+00,7.114993733114437418e+03
139,2.565102729466914866e-01,-3.148577832982989155e-02,3.864079705506497922e-04,3.003558539073267752e+00,6.946009831412419771e+03
140,2.676947696418762734e-01,-3.285861933176036087e-02,4.032561193818186155e-04,3.002808077344332194e+00,6.785408538414572831e+03
141,2.789579749635818784e-01,-3.424112142373426232e-02,4.202228336008497953e-04,3.002575291365025656e+00,6.635574469878709351e+03
142,2.902612172803473167e-01,-3.562853785650958727e-02,4.372498588594549238e-04,3.002118356064212623e+00,6.496506463944210736e+03
143,3.015652714578477833e-01,-3.701605394113113845e-02,4.542781070645934816e-04,3.001207763193021627e+00,6.367869520317156457e+03
144,3.128309011269436724e-01,-3.839885360962549260e-02,4.712484731714408973e-04,3.000276675107353963e+00,6.244952343761729935e+03
145,3.240194012344890795e-01,-3.977218601039229223e-02,4.881026524733199172e-04,3.000103345401279320e+00,6.130632842820750739e+03
146,3.350931250219981727e-01,-4.113143019221565666e-02,5.047839345050567474e-04,2.999944173238730194e+00,6.023059113235673976e+03
147,3.460159804824681218e-01,-4.247215604184943760e-02,5.212379508407643299e-04,2.999515048821255636e+00,5.922272855519270706e+03
148,3.567538825862109908e-01,-4.379017979245960340e-02,5.374133563338616545e-04,2.998578776944480051e+00,5.828000754887787480e+03
149,3.672751498794861180e-01,-4.508161270412085198e-02,5.532624265468664071e-04,2.997559371131655936e+00,5.738085073582253244e+03
150,3.775508365837981217e-01,-4.634290182737636071e-02,5.687415580204796452e-04,2.997654840788490205e+00,5.655634820372219110e+03
151,3.875549942096240819e-01,-4.757086211499088335e-02,5.838116623642830485e-04,2.997927715719963082e+00,5.579035800006575300e+03
152,3.972648596717774927e-01,-4.876269951215587983e-02,5.984384496306526620e-04,2.998119351753680384e+00,5.508395484285467319e+03
153,4.066609697831261028e-01,-4.991602501004684111e-02,6.125926007862210303e-04,2.997956847383453471e+00,5.442058203366655107e+03
