,x,y,z,pressure-normalized,heat-flux-normalized
0,1.801440995437411999e-02,-2.822251888054063093e-05,2.822253506751827896e-05,6.671586539639987734e+01,2.648273191154545057e+05
1,1.801440995447125062e-02,2.822254230028691983e-05,2.822251747516855909e-05,6.658620413111043490e+01,2.620154676446497615e+05
2,1.801568167846267013e-02,8.467209892073948412e-05,2.805757831515070060e-05,6.637799194329548413e+01,2.602976214667804015e+05
3,1.801822828175718080e-02,1.410963746583561028e-04,2.786087009102869024e-05,6.609519775936183805e+01,2.590516009996249340e+05
4,1.802204891703717074e-02,1.974471669473611092e-04,2.765650510075331098e-05,6.574033037542105262e+01,2.580520723698195070e+05
5,1.802714159604835997e-02,2.536964122040496800e-04,2.744430395774007114e-05,6.531004324419262730e+01,2.573214875463522039e+05
6,1.803350370436317129e-02,3.098157622530673208e-04,2.722418540284151912e-05,6.480287542276803947e+01,2.566257505426372518e+05
7,1.804113198093242054e-02,3.657766647994118120e-04,2.699638205750116908e-05,6.421958351529609388e+01,2.557346978600938746e+05
8,1.805002252389766026e-02,4.215506029010985937e-04,2.676129735179966023e-05,6.356469672214404198e+01,2.546162481251362187e+05
9,1.806017080228743132e-02,4.771092004198354878e-04,2.651945003648686138e-05,6.283728745183332620e+01,2.531534992194222577e+05
10,1.807157165786486830e-02,5.324242155155826852e-04,2.627141081729140930e-05,6.204082699596865780e+01,2.513490063813047018e+05
11,1.808421932466553958e-02,5.874676085780980092e-04,2.601781206278146167e-05,6.117784268616615151e+01,2.492234224872200575e+05
12,1.809810744435319876e-02,6.422115674180232199e-04,2.575940109289892002e-05,6.025169278668344219e+01,2.468106647844796535e+05
13,1.811322908898743006e-02,6.966285447249104951e-04,2.549704337972670082e-05,5.926451197095717305e+01,2.441309263257228013e+05
14,1.812957677502467085e-02,7.506912677293449323e-04,2.523166704049578876e-05,5.821892967872105373e+01,2.411882206055687566e+05
15,1.814714247958399904e-02,8.043727398037934509e-04,2.496426276309682065e-05,5.711865942440191191e+01,2.380112639130349271e+05
16,1.816591766699137897e-02,8.576462777073290238e-04,2.469592043841342151e-05,5.596653632084320407e+01,2.346124165712692775e+05
17,1.818589330784748173e-02,9.104855156894960371e-04,2.442779337624390127e-05,5.476740589266459835e+01,2.310138717002295598e+05
18,1.820705989627267873e-02,9.628644121745136113e-04,2.416099495780049084e-05,5.352643388982122019e+01,2.272424237192459987e+05
19,1.822940746046914848e-02,1.014757232364543000e-03,2.389659021433573115e-05,5.224662006515290358e+01,2.233152932065706118e+05
20,1.825292557820172926e-02,1.066138545983539958e-03,2.363566850255073999e-05,5.092952108204804063e+01,2.192304561619834567e+05
21,1.827760339189143934e-02,1.116983227582045001e-03,2.337933293389198060e-05,4.957984649135097754e+01,2.149955331091149128e+05
22,1.830342961927531112e-02,1.167266451813872043e-03,2.312864939695831950e-05,4.820197806162733656e+01,2.106201276983644639e+05
23,1.833039254025249989e-02,1.216963646091734959e-03,2.288462227067047055e-05,4.680046314058037638e+01,2.061221787092334998e+05
24,1.835848000825789084e-02,1.266050495928279030e-03,2.264822022218170142e-05,4.537939167130284801e+01,2.015208423052796570e+05
25,1.838767945222903946e-02,1.314502938379044986e-03,2.242037586909555137e-05,4.393977855124731491e+01,1.968018268116967520e+05
26,1.841797790606315016e-02,1.362297194679628048e-03,2.220202650369763867e-05,4.248998641183030145e+01,1.919994912855138537e+05
27,1.844936196615426169e-02,1.409409696605723981e-03,2.199414389423806054e-05,4.102987924515681328e+01,1.871038744332659408e+05
28,1.848181766988523170e-02,1.455816912800482954e-03,2.179786645099481921e-05,3.956455115716322268e+01,1.821295671079198073e+05
29,1.851533030634502919e-02,1.501495133634495006e-03,2.161487664853691166e-05,3.810035603393714609e+01,1.770964031233089627e+05
30,1.854988401257402081e-02,1.546420026832641967e-03,2.144847475357314985e-05,3.664709017455184181e+01,1.720427989244685159e+05
31,1.858546018894724830e-02,1.590564866135010108e-03,2.130660436577818941e-05,3.517994673882417089e+01,1.665973182373707532e+05
32,1.862201990637599863e-02,1.633880439023486066e-03,2.122906930661055998e-05,3.381599962939728243e+01,1.621026785399962100e+05
33,1.865943990687458920e-02,1.676227973219738925e-03,2.136640133254071901e-05,3.229602417129727598e+01,1.561998801722075441e+05
34,1.869770782926191005e-02,1.717605657795547936e-03,2.170195377215937977e-05,3.091965701657422727e+01,1.513802729043984436e+05
35,1.873691061892416090e-02,1.758120470772461981e-03,2.207380054867395889e-05,2.953956080346777568e+01,1.462620757401851006e+05
36,1.877704261340858161e-02,1.797765269488471899e-03,2.244927444408904136e-05,2.817852048872811110e+01,1.411184609292928653e+05
37,1.881808244504422009e-02,1.836515888173182072e-03,2.282325962456479876e-05,2.683033316088899056e+01,1.359252245882707357e+05
38,1.886000784324648114e-02,1.874348550735673935e-03,2.319386897456871007e-05,2.551457779043460405e+01,1.307319006606105686e+05
39,1.890279620420811865e-02,1.911240461651729028e-03,2.356021977714973110e-05,2.423867426407689507e+01,1.256121875318731181e+05
40,1.894642461893741164e-02,1.947169776113359023e-03,2.392180715413897072e-05,2.299438744442801408e+01,1.205655523971830407e+05
41,1.899086986380576006e-02,1.982115536147510942e-03,2.427828566632234052e-05,2.178004554443362295e+01,1.155705979022538668e+05
42,1.903610845263679907e-02,2.016057660341101163e-03,2.462931561410130845e-05,2.060167657906398375e+01,1.106306373975289607e+05
43,1.908211664440639943e-02,2.048976900757094009e-03,2.497454022109025858e-05,1.946461168992330926e+01,1.057687977748105041e+05
44,1.912887038620300975e-02,2.080854757965328993e-03,2.531362972238436853e-05,1.837005328460869436e+01,1.010094942141564679e+05
45,1.917634532098686992e-02,2.111673457243196106e-03,2.564628695526535064e-05,1.731626574383704309e+01,9.636331154168468493e+04
46,1.922451675873074889e-02,2.141415907705153908e-03,2.597222844619548099e-05,1.630136141216626555e+01,9.182829546826731530e+04
47,1.927335969217639985e-02,2.170065694522825203e-03,2.629118048277653025e-05,1.532507076269882518e+01,8.740264379771627137e+04
48,1.932284881907797916e-02,2.197607077767472876e-03,2.660288842170224039e-05,1.438826012286319411e+01,8.308861972089300980e+04
49,1.937295854830209038e-02,2.224024980982129956e-03,2.690710084992450964e-05,1.349183413757646655e+01,7.889104829240514664e+04
50,1.942366300299222873e-02,2.249304982795611967e-03,2.720353695708314031e-05,1.263613848015888586e+01,7.481681885295831307e+04
51,1.947493601622055093e-02,2.273433305034362837e-03,2.749188708561382932e-05,1.182141518947055303e+01,7.087860606254759477e+04
52,1.952675119029559023e-02,2.296396831565184794e-03,2.777184538577858125e-05,1.104617987654261491e+01,6.706877904593483254e+04
53,1.957908188873716884e-02,2.318183094624811161e-03,2.804311778219292995e-05,1.030960450947748264e+01,6.339193617394151806e+04
54,1.963190124705319062e-02,2.338780270121870990e-03,2.830541723589193842e-05,9.610944585822807085e+00,5.984975554515551630e+04
55,1.968518222227872913e-02,2.358177189183666925e-03,2.855846307357755071e-05,8.949424701268211990e+00,5.644217310834202362e+04
56,1.973889759534298849e-02,2.376363327998233868e-03,2.880198800491053142e-05,8.324238667801209246e+00,5.316938917287096410e+04
57,1.979302003960287104e-02,2.393328819081037926e-03,2.903573789046060943e-05,7.734449605992133492e+00,5.003112030446952849e+04
58,1.984752214726353062e-02,2.409064444980912184e-03,2.925946944181607006e-05,7.179053574537934246e+00,4.702777296688142815e+04
59,1.990237651522301990e-02,2.423561642072827055e-03,2.947295280210962917e-05,6.656986545357524321e+00,4.415937409106446285e+04
60,1.995755593348797971e-02,2.436812519980673108e-03,2.967598755699357843e-05,6.166963199632151671e+00,4.142460507291436807e+04
61,2.001303363468899879e-02,2.448809865998375149e-03,2.986844998245317070e-05,5.707594538932561967e+00,3.882428698244760017e+04
62,2.006878391406071924e-02,2.459547179114258877e-03,3.005047078017534005e-05,5.277710413856873117e+00,3.635599726818249474e+04
63,2.012478220574371104e-02,2.469018541272760027e-03,3.022281556576528850e-05,4.878008647932071007e+00,3.402252279730709415e+04
64,2.018096979721200127e-02,2.477214360860987945e-03,3.037747450508824078e-05,4.519420791845583985e+00,3.162282684229078950e+04
65,2.024256307516019912e-02,2.485099215665714182e-03,3.049863889482984109e-05,4.290790762136261094e+00,2.945753213360350492e+04
66,2.031239513797574933e-02,2.493670751934991183e-03,3.060383267315392304e-05,4.182232613474959670e+00,2.813534155313764495e+04
67,2.038828727176967073e-02,2.502986131596877072e-03,3.071815527669297211e-05,4.099906780462309719e+00,2.711408663734023503e+04
68,2.047076343996141051e-02,2.513109668533016188e-03,3.084239596140044134e-05,4.034716691092808283e+00,2.628881395929682549e+04
69,2.056039255783313063e-02,2.524111194249555132e-03,3.097741172724920297e-05,3.979518426543378062e+00,2.558673920455893676e+04
70,2.065779228583830909e-02,2.536066523479517994e-03,3.112413300705076254e-05,3.930066383992218526e+00,2.496876085099234115e+04
71,2.076363313129015939e-02,2.549057957632422985e-03,3.128356984121284326e-05,3.882605637501732154e+00,2.439086234815592979e+04
72,2.087864288056508894e-02,2.563174828848561928e-03,3.145681855502122808e-05,3.835308288104165797e+00,2.384191683999963789e+04
73,2.100361138852614024e-02,2.578514087858833990e-03,3.164506897212048127e-05,3.787803301177993909e+00,2.332032500962556151e+04
74,2.113939574799433840e-02,2.595180938520603997e-03,3.184961220242240259e-05,3.739270227527371038e+00,2.280890279735221702e+04
75,2.128692586795248934e-02,2.613289522505360136e-03,3.207184904487714810e-05,3.689358681890951619e+00,2.230261504666411929e+04
76,2.144721048793240062e-02,2.632963657544693924e-03,3.231329904741400249e-05,3.636966558218005741e+00,2.179849755231583185e+04
77,2.162134365786454876e-02,2.654337632796082130e-03,3.257561026807793281e-05,3.581406897767988262e+00,2.129380127569112301e+04
78,2.181051171365018873e-02,2.677557065049668023e-03,3.286056978292257894e-05,3.522547064324699218e+00,2.077574232429912809e+04
79,2.201600077956187076e-02,2.702779819620605099e-03,3.317011498749251208e-05,3.460206591141119947e+00,2.026310645231632952e+04
80,2.223920482908570140e-02,2.730176999792637959e-03,3.350634573965669927e-05,3.394825148740043375e+00,1.974218722872262151e+04
81,2.248163433670135117e-02,2.759934008742903882e-03,3.387153739203815813e-05,3.326735721564080706e+00,1.921298321061799288e+04
82,2.274492555149664960e-02,2.792251687853620785e-03,3.426815476219432968e-05,3.255619230484864346e+00,1.867557683927793551e+04
83,2.303085042511062927e-02,2.827347535326086864e-03,3.469886708789748019e-05,3.182136923262974815e+00,1.813531061617320302e+04
84,2.334132722428945012e-02,2.865457008802859990e-03,3.516656401316974067e-05,3.105819389858306856e+00,1.758344184695146760e+04
85,2.367843185552721136e-02,2.906834915421621819e-03,3.567437264794288292e-05,3.027666845349684444e+00,1.703392515686746992e+04
86,2.404440992828546855e-02,2.951756892505694174e-03,3.622567574010287041e-05,2.948672033054536623e+00,1.648907093807444471e+04
87,2.444168957947431831e-02,3.000520981711743158e-03,3.682413099296965718e-05,2.868229236086454748e+00,1.595231568749867438e+04
88,2.487289507361515120e-02,3.053449298372667032e-03,3.747369155364063155e-05,2.786332118816863268e+00,1.541962191495183652e+04
89,2.534086119187219099e-02,3.110889797691643137e-03,3.817862768772761317e-05,2.702760730764194985e+00,1.488561147186066410e+04
90,2.584864841000285990e-02,3.173218137757968012e-03,3.894354964343005017e-05,2.618128276903118667e+00,1.435422708423456970e+04
91,2.639955885687705894e-02,3.240839638363491974e-03,3.977343169214561300e-05,2.535322470570873232e+00,1.383910143224048443e+04
92,2.699715303572224057e-02,3.314191333462951881e-03,4.067363731339583186e-05,2.455150383712379369e+00,1.334508576495816123e+04
93,2.764526726277356100e-02,3.393744111681775994e-03,4.164994546815334699e-05,2.377321487175779513e+00,1.287001954639381620e+04
94,2.834803177529630902e-02,3.480004938973942953e-03,4.270857787605538271e-05,2.301001672863546066e+00,1.240831065425967245e+04
95,2.910988942873236895e-02,3.573519153608113903e-03,4.385622717776421189e-05,2.226162607046806574e+00,1.196637347928230884e+04
96,2.993561487294637072e-02,3.674872819966903004e-03,4.510008582313353084e-05,2.153767799223543999e+00,1.154034109931745297e+04
97,3.083033407200205106e-02,3.784695124490648072e-03,4.644787547805406336e-05,2.085611073804873428e+00,1.113621728703526423e+04
98,3.179954399804545140e-02,3.903660793003518956e-03,4.790787668704662137e-05,2.023517540675259241e+00,1.076371197695996852e+04
99,3.284913227641444999e-02,4.032492502050872597e-03,4.948895846400384055e-05,1.966818301192757579e+00,1.042188205524810110e+04
100,3.398539650455507932e-02,4.171963250209377409e-03,5.120060740913249706e-05,1.912674467190339733e+00,1.009810967588115636e+04
101,3.521506295868599701e-02,4.322898654226314981e-03,5.305295586536488018e-05,1.860465217495841150e+00,9.786733550871000261e+03
102,3.654530425744390021e-02,4.486179117141350300e-03,5.505680853165368667e-05,1.811695773014215805e+00,9.491960027607472512e+03
103,3.798375552087816798e-02,4.662741811739598910e-03,5.722366684320523856e-05,1.768699429416004998e+00,9.224019069463276537e+03
104,3.953852858001673243e-02,4.853582424687778382e-03,5.956575030968514704e-05,1.732657954912437015e+00,8.992096062743547009e+03
105,4.121822342556785701e-02,5.059756561812780648e-03,6.209601387199164581e-05,1.703383157174845008e+00,8.808947563451356473e+03
106,4.303193651623493654e-02,5.282380767902498248e-03,6.482816019710727160e-05,1.677128149681716085e+00,8.644037132123730771e+03
107,4.498926465998179247e-02,5.522633003111972368e-03,6.777664568028340594e-05,1.652655236801157335e+00,8.488629355039913207e+03
108,4.710030379147975288e-02,5.781752492898749839e-03,7.095667876671808716e-05,1.630855716181976778e+00,8.343905468391405520e+03
109,4.937564185785080217e-02,6.061038854788431372e-03,7.438420904438740268e-05,1.613145002882060419e+00,8.221146144636915778e+03
110,5.182634441922553264e-02,6.361850330921041061e-03,7.807590540051913882e-05,1.599669404515505988e+00,8.114063018548271430e+03
111,5.446393168203320784e-02,6.685600968990248159e-03,8.204912138261833917e-05,1.593234296047910226e+00,8.057915491346812814e+03
112,5.730034505093600794e-02,7.033756516653776568e-03,8.632184576900644112e-05,1.589092642678830547e+00,8.013088360180699055e+03
113,6.034790386728996342e-02,7.407829111424363115e-03,9.091263624352151774e-05,1.590042727784927390e+00,8.010470639530152766e+03
114,6.361924867211510293e-02,7.809370316465318734e-03,9.584053399644813808e-05,1.592643868219002279e+00,8.014144657335144075e+03
115,6.712726994750134457e-02,8.239962373938466977e-03,1.011249570531778946e-04,1.596818017526375089e+00,8.034059794827639053e+03
116,7.088502198888438355e-02,8.701207633288399884e-03,1.067855701799029955e-04,1.602809486474098266e+00,8.066923583773344035e+03
117,7.490561957559851991e-02,9.194715868053577809e-03,1.128421293499943943e-04,1.611117006252928308e+00,8.112571235208391954e+03
118,7.920211680549781030e-02,9.722089403420433942e-03,1.193142989950829951e-04,1.621939590605537829e+00,8.172420713660719230e+03
119,8.378736659565498568e-02,1.028490587064614069e-02,1.262214406312340924e-04,1.634916050391584719e+00,8.248868615505296475e+03
120,8.867386102527102798e-02,1.088469860994610919e-02,1.335823719622377943e-04,1.649247789072251669e+00,8.341282548708290051e+03
121,9.387355130708624484e-02,1.152293457287299934e-02,1.414150962359473935e-04,1.663997621338994204e+00,8.444825162806260778e+03
122,9.939764913847999594e-02,1.220098993917952991e-02,1.497365024785063988e-04,1.678428681497348807e+00,8.555514412508753594e+03
123,1.052564093606492002e-01,1.292012343931579939e-02,1.585620382612911935e-04,1.692085947983221983e+00,8.670722578141427221e+03
124,1.114588961422364050e-01,1.368144765461635007e-02,1.679053578631670911e-04,1.704878795731024077e+00,8.790492552825526218e+03
125,1.180127363019020936e-01,1.448589873890933008e-02,1.777779500607522939e-04,1.716570375831210971e+00,8.914821339540343615e+03
126,1.249238620742338934e-01,1.533420484430142970e-02,1.881887512813987945e-04,1.727292080024805720e+00,9.043655189793715181e+03
127,1.321962498490630022e-01,1.622685405275020934e-02,1.991437514398832051e-04,1.737184933251034513e+00,9.175739456275132397e+03
128,1.398316594761744025e-01,1.716406237701734866e-02,2.106456013840461044e-04,1.746498298382459957e+00,9.311087785124949733e+03
129,1.478293814689627950e-01,1.814574273116564829e-02,2.226932324116633099e-04,1.755165348227112343e+00,9.448656142759888098e+03
130,1.561860003560920085e-01,1.917147588317700060e-02,2.352814996883840126e-04,1.763121256125038450e+00,9.586296632411513201e+03
131,1.648951827582675889e-01,2.024048444244343908e-02,2.484008624791061125e-04,1.770470803159440498e+00,9.722158188941872140e+03
132,1.739474982698923089e-01,2.135161087386803005e-02,2.620371147802903733e-04,1.777360025895311724e+00,9.854718542585091200e+03
133,1.833302826953407128e-01,2.250330071079420166e-02,2.761711800880840080e-04,1.783865318093431185e+00,9.982162910177519734e+03
134,1.930275542723859095e-01,2.369359227189354877e-02,2.907789835494900077e-04,1.790033461516696622e+00,1.010266721825461718e+04
135,2.030199876794001879e-01,2.492011347063945170e-02,3.058314135395574221e-04,1.795940422199148401e+00,1.021508208144836499e+04
136,2.132849542102382978e-01,2.618008674658009113e-02,3.212943827433438178e-04,1.801579317137744551e+00,1.031827131511299012e+04
137,2.237966337217386081e-01,2.747034280635414147e-02,3.371289961038234097e-04,1.806866634412898076e+00,1.041102726055010498e+04
138,2.345261995131953103e-01,2.878734331669393146e-02,3.532918295908643092e-04,1.811733000135999028e+00,1.049254805744798250e+04
139,2.454420769915479916e-01,3.012721265429069151e-02,3.697353197789392189e-04,1.816172182155762371e+00,1.056268053878586761e+04
140,2.565102729463956122e-01,3.148577832268292798e-02,3.864082598791918196e-04,1.820226565941484687e+00,1.062195874499011552e+04
141,2.676947696415966083e-01,3.285861932499586913e-02,4.032563933922349146e-04,1.823932873313355740e+00,1.067114959420712694e+04
142,2.789579749633184780e-01,3.424112141735446285e-02,4.202230922034972836e-04,1.827303613170671692e+00,1.071118022201243548e+04
143,2.902612172801016799e-01,3.562853785051022654e-02,4.372501020177244849e-04,1.830362584897339939e+00,1.074311447320807019e+04
144,3.015652714576187998e-01,3.701605393551075929e-02,4.542783347954110836e-04,1.833136156328788680e+00,1.076801033393655052e+04
145,3.128309011267296214e-01,3.839885360437773204e-02,4.712486855450187138e-04,1.835729319507646728e+00,1.078688231184055803e+04
146,3.240194012342912933e-01,3.977218600552227812e-02,4.881028496122129094e-04,1.838177884434216480e+00,1.080058262964990899e+04
147,3.350931250218163737e-01,4.113143018772536658e-02,5.047841165824709826e-04,1.840436436609736326e+00,1.080956479746934201e+04
148,3.460159804823021990e-01,4.247215603772540315e-02,5.212381180782391750e-04,1.842423334584926353e+00,1.081402840255315641e+04
149,3.567538825860606111e-01,4.379017978869165911e-02,5.374135089983530546e-04,1.844083547619098873e+00,1.081422957729572408e+04
150,3.672751498793508929e-01,4.508161270070491777e-02,5.532625649473255774e-04,1.845434408522462544e+00,1.081076698024069265e+04
151,3.775508365836779956e-01,4.634290182430569893e-02,5.687416825039989495e-04,1.846560789130588631e+00,1.080457756653210527e+04
152,3.875549942095186107e-01,4.757086211225430156e-02,5.838117733119201937e-04,1.847561076940330338e+00,1.079661505539245081e+04
153,3.972648596716861769e-01,4.876269950974147782e-02,5.984385474530458599e-04,1.848498157447829415e+00,1.078756647651545791e+04
154,4.066609697830483872e-01,4.991602500794119213e-02,6.125926859190705849e-04,1.849388184776477928e+00,1.077780617756617903e+04
