,x,y,z,pressure-normalized,heat-flux-normalized
0,1.801630787776287851e-02,5.627345980954836851e-05,5.627335090147697811e-05,6.640615330226461310e+01,2.653742117945732316e+05
1,1.801630790102309865e-02,-5.627014944633021768e-05,5.627344569424899185e-05,6.665168314998450683e+01,2.687430092463693582e+05
2,1.802134984017519925e-02,1.687386614526751130e-04,5.559321409731154268e-05,6.588525693858473176e+01,2.642256480761099956e+05
3,1.803145165226517979e-02,2.809002588157277986e-04,5.478233685908889334e-05,6.502831534514115219e+01,2.601690640174007567e+05
4,1.804659497129663948e-02,3.924897857683605235e-04,5.389613995386888820e-05,6.384956263011049060e+01,2.567650593608556665e+05
5,1.806674924043234071e-02,5.032817264567226393e-04,5.294207952990875009e-05,6.239440516767308509e+01,2.528322181574588758e+05
6,1.809187448920904911e-02,6.130538433156567952e-04,5.193107089059257827e-05,6.068372411284379808e+01,2.478675187009382935e+05
7,1.812192219433460955e-02,7.215888782877194658e-04,5.087734122895007193e-05,5.871943745595657305e+01,2.420100150420764694e+05
8,1.815683640989505104e-02,8.286758038532822954e-04,4.979850163523177306e-05,5.653898775194790716e+01,2.354042866569494363e+05
9,1.819655497741179059e-02,9.341104377991588364e-04,4.871482419583731966e-05,5.416252751259018083e+01,2.281666092684667383e+05
10,1.824101069394417837e-02,1.037695590085080995e-03,4.764745055552122282e-05,5.161819739589750355e+01,2.203535975225248840e+05
11,1.829013226850257148e-02,1.139240474920866003e-03,4.661725779909156760e-05,4.891872471025983060e+01,2.118872358579857100e+05
12,1.834384494555118053e-02,1.238559585065214996e-03,4.564453645901663236e-05,4.611231786820248857e+01,2.029460323170823976e+05
13,1.840207078068121019e-02,1.335471391422621929e-03,4.474832614008988901e-05,4.323736831248395163e+01,1.935736565705913235e+05
14,1.846472855512071992e-02,1.429796857367459902e-03,4.394764565574465305e-05,4.034245668495824333e+01,1.837984856494562409e+05
15,1.853172894296142154e-02,1.521352114368967976e-03,4.327018155020067198e-05,3.738978945803114584e+01,1.731646192119782500e+05
16,1.860290647425584878e-02,1.609867945851351954e-03,4.284697499185614059e-05,3.472205755805400429e+01,1.642624028186523065e+05
17,1.867754009022676992e-02,1.694496859198319026e-03,4.341466175677227907e-05,3.161535496891976393e+01,1.528905348423910036e+05
18,1.875548640850246973e-02,1.775167912860678996e-03,4.487299800599808765e-05,2.886188321056054562e+01,1.432539767507539073e+05
19,1.883716169028063978e-02,1.852421130378189944e-03,4.640609946771625204e-05,2.620103739668868670e+01,1.331492330741689948e+05
20,1.892242791972935032e-02,1.926086337975416998e-03,4.791074004302538209e-05,2.362476199845619007e+01,1.229338563501590397e+05
21,1.901109419906497899e-02,1.995957622375811938e-03,4.937141341496834778e-05,2.119590527086798915e+01,1.128907500008909410e+05
22,1.910296600419853982e-02,2.061849329758854051e-03,5.077988452214923299e-05,1.893388660479430641e+01,1.032111406728380243e+05
23,1.919784584821638065e-02,2.123593877488099118e-03,5.212905110536169781e-05,1.683277309181156411e+01,9.395962817772904236e+04
24,1.929553219424727864e-02,2.181038733590128040e-03,5.341269139750274311e-05,1.488706844081022318e+01,8.515249938619547174e+04
25,1.939581920822941105e-02,2.234044803155723052e-03,5.462513614122656053e-05,1.309449255833740899e+01,7.678346241931582335e+04
26,1.949849695434755989e-02,2.282485555979624214e-03,5.576055475011380119e-05,1.145967801797476149e+01,6.893618376300214732e+04
27,1.960335188231059067e-02,2.326246462067969954e-03,5.681286286825342196e-05,9.977891329846810820e+00,6.156931247437883576e+04
28,1.971016768160295876e-02,2.365224635700539924e-03,5.777627111970673316e-05,8.645830439856098337e+00,5.473085892577028426e+04
29,1.981872658285927999e-02,2.399328560375503863e-03,5.864546644942120754e-05,7.457854092154875048e+00,4.843696749694474420e+04
30,1.992881203013022878e-02,2.428477952826477073e-03,5.941567603333005736e-05,6.404697803006670576e+00,4.268492325065571640e+04
31,2.004021585852255871e-02,2.452603821125368035e-03,6.008297946019712336e-05,5.479765399854215069e+00,3.749562246946459345e+04
32,2.015266073707435920e-02,2.471636884732513958e-03,6.063514388175989119e-05,4.680129974943739946e+00,3.252966111358828130e+04
33,2.027893132171780868e-02,2.488438469059479994e-03,6.109012283010968971e-05,4.214210265775146347e+00,2.850833481006350848e+04
34,2.043123954945793089e-02,2.507125096465869819e-03,6.154885189916732590e-05,4.053560944053727688e+00,2.655084321266257757e+04
35,2.061111544525194919e-02,2.529193988523476943e-03,6.209061167122691702e-05,3.947270913436020212e+00,2.516920071759453276e+04
36,2.082352492249748069e-02,2.555254410922856798e-03,6.273035795617607055e-05,3.857055269197856795e+00,2.400114531120129686e+04
37,2.107431903124133005e-02,2.586024226341231916e-03,6.348571315289048026e-05,3.765547564721658969e+00,2.300411534702659992e+04
38,2.137038801069383875e-02,2.622348795104909036e-03,6.437742964371181314e-05,3.659449828211431832e+00,2.201343851601262941e+04
39,2.171984068646485092e-02,2.665222985350238112e-03,6.542993002514512564e-05,3.541282679070082207e+00,2.095640768575368929e+04
40,2.213221279185102058e-02,2.715816731872885883e-03,6.667193453204563365e-05,3.416435903085842885e+00,1.993153508588613840e+04
41,2.261870805595560946e-02,2.775504615109938063e-03,6.813718715959325863e-05,3.284803929170692527e+00,1.888131319290114334e+04
42,2.319247606986849994e-02,2.845899952422195189e-03,6.986529255288080175e-05,3.141664248804093340e+00,1.780684330735275216e+04
43,2.386893094200046028e-02,2.928893893786851943e-03,7.190267575432744446e-05,2.985843589283565525e+00,1.672491884026466141e+04
44,2.466611450916008155e-02,3.026699983967008883e-03,7.430367613930392531e-05,2.820270583650229757e+00,1.566515296044992101e+04
45,2.560510722148421139e-02,3.141904573826181934e-03,7.713178494199253899e-05,2.652367227726271981e+00,1.459621629085154927e+04
46,2.671048861822937145e-02,3.277523315891524812e-03,8.046103214382884579e-05,2.487929091685636251e+00,1.357132918422522744e+04
47,2.801084730961770144e-02,3.437063733777689836e-03,8.437752245991035887e-05,2.329250881322527889e+00,1.260190236547568929e+04
48,2.953933726585538863e-02,3.624593473051160048e-03,8.898111080324867740e-05,2.179739864277062011e+00,1.171496236085368764e+04
49,3.133427264072721069e-02,3.844813279844011989e-03,9.438719379199151716e-05,2.046357712571960974e+00,1.092394950315588358e+04
50,3.343974679684130064e-02,4.103132948821816041e-03,1.007285742183757990e-04,1.931014694192237480e+00,1.023346869941722252e+04
51,3.590625230281298957e-02,4.405747390322978588e-03,1.081573283579175990e-04,1.832253930394570629e+00,9.640178721506539659e+03
52,3.879126665570326038e-02,4.759708492375096939e-03,1.168465699309071955e-04,1.750386636876885005e+00,9.123407899405829085e+03
53,4.215975284384543276e-02,5.172986534547664023e-03,1.269919579800101968e-04,1.687805878632284928e+00,8.727394679581591845e+03
54,4.608450507937623258e-02,5.654512605701008006e-03,1.388127380559025929e-04,1.640387416668413145e+00,8.411710959863596145e+03
55,5.064624678267277968e-02,6.214190625654997940e-03,1.525520373809585977e-04,1.609669645972662488e+00,8.204953460655564413e+03
56,5.593336278174171339e-02,6.862864488866525156e-03,1.684760579100221054e-04,1.587573030513966144e+00,8.027035893804839361e+03
57,6.204112107923640679e-02,7.612222583357777100e-03,1.868717329805952938e-04,1.591718710476379472e+00,8.018895111852171794e+03
58,6.907021784721910362e-02,8.474619276773646612e-03,2.080423454777809026e-04,1.601636298447920437e+00,8.061006345035715640e+03
59,7.712446692851240848e-02,9.462791442400239617e-03,2.323005670655763891e-04,1.618793644303502255e+00,8.157817265069530549e+03
60,8.630745854434382358e-02,1.058944851749395004e-02,2.599583959379209793e-04,1.642863891599265047e+00,8.306994601238873656e+03
61,9.671805085266868551e-02,1.186671936459584957e-02,2.913135787714772173e-04,1.670410452245397970e+00,8.504350260257253467e+03
62,1.084446355255798966e-01,1.330544871784931048e-02,3.266323383531598203e-04,1.697320825111884091e+00,8.737857932731925757e+03
63,1.215582480787189001e-01,1.491435189243455958e-02,3.661286233688903222e-04,1.720587577178327887e+00,8.994144226624086514e+03
64,1.361047834928867106e-01,1.669905972273133879e-02,4.099406627466654039e-04,1.740304020242190886e+00,9.261493948263512721e+03
65,1.520968120691781889e-01,1.866111445327622853e-02,4.581063165018116920e-04,1.757930774291478038e+00,9.535870590230155358e+03
66,1.695057463177762069e-01,2.079700869790166926e-02,5.105394833511418384e-04,1.773554669590516220e+00,9.806144410930526647e+03
67,1.882553333211456070e-01,2.309738702075483929e-02,5.670105005214701437e-04,1.787054358840502566e+00,1.005628933982303352e+04
68,2.082175715493475021e-01,2.554654497220490081e-02,6.271338461946579512e-04,1.798773319837422946e+00,1.027356606775043838e+04
69,2.292121038837769131e-01,2.812235461919743162e-02,6.903663110858669020e-04,1.809439470627980162e+00,1.045329339901113781e+04
70,2.510098656304194931e-01,3.079671211834050099e-02,7.560179857984087193e-04,1.819057461972799272e+00,1.059378598073544708e+04
71,2.733412669073354007e-01,3.353654160933536299e-02,8.232769049786674807e-04,1.826936662146134926e+00,1.069409873248489203e+04
72,2.959085264069243881e-01,3.630530843865954760e-02,8.912461948068890966e-04,1.832663679224910469e+00,1.075665311699083213e+04
73,3.184010806923521786e-01,3.906490971914462762e-02,9.589904835488646372e-04,1.836633643691920614e+00,1.078901111992152255e+04
74,3.405124362607426791e-01,4.177774190198180887e-02,1.025586657511521997e-03,1.839836373287026872e+00,1.079999240306046886e+04
75,3.619565590148516865e-01,4.440871159355006675e-02,1.090173223741035952e-03,1.842770368729888419e+00,1.079795557299550455e+04
76,3.824819839343012728e-01,4.692696666459372085e-02,1.151992806294763064e-03,1.845564609487692742e+00,1.078839412192437885e+04
77,4.018822516718054128e-01,4.930717671146347264e-02,1.210423579746625023e-03,1.848098769191452106e+00,1.077319994544874680e+04
78,4.200019219056002062e-01,5.153027083160467703e-02,1.264997380519205898e-03,1.850301460466640791e+00,1.075734141040975192e+04
79,4.367381110550299095e-01,5.358362628518670290e-02,1.315404338474715972e-03,1.851944242567907573e+00,1.073151500603848945e+04
80,4.520380998195546729e-01,5.546077496520254724e-02,1.361485669314536039e-03,1.853411916210183419e+00,1.075612301209010184e+04
81,4.661866526865531268e-01,5.719665449555400016e-02,1.404099079851182973e-03,1.854326801457272689e+00,1.068654179783584004e+04
82,4.799090389457835726e-01,5.888024783628908326e-02,1.445428976734642939e-03,1.855078069616274528e+00,1.067358382417959729e+04
83,4.936314252050157947e-01,6.056384117702730968e-02,1.486758873589942055e-03,1.855679862219595577e+00,1.065135766373281149e+04
84,5.073538114642479613e-01,6.224743451776512670e-02,1.528088770417080971e-03,1.856232929369139750e+00,1.062819890608167225e+04
85,5.210761977234802389e-01,6.393102785850790504e-02,1.569418667216059037e-03,1.856767771747609430e+00,1.060466498376388154e+04
86,5.347985839827107402e-01,6.561462119925384751e-02,1.610748563986876903e-03,1.857242603145086157e+00,1.058072143382815375e+04
87,5.485209702419339139e-01,6.729821453999580705e-02,1.652078460729533051e-03,1.857629686875178487e+00,1.055632474646878472e+04
88,5.622433565011641932e-01,6.898180788073561553e-02,1.693408357444027915e-03,1.857935705375906243e+00,1.053161610503735574e+04
89,5.759657427603963598e-01,7.066540122148215475e-02,1.734738254130363012e-03,1.858168347458010849e+00,1.050671231507975244e+04
90,5.896881290196249736e-01,7.234899456223715941e-02,1.776068150788537043e-03,1.858333171012932494e+00,1.048169336940727226e+04
91,6.034105152788590276e-01,7.403258790298823666e-02,1.817398047418551958e-03,1.858429982241211142e+00,1.045662206109874569e+04
92,6.171329015380913052e-01,7.571618124373358238e-02,1.858727944020402987e-03,1.858477742814676814e+00,1.043161068943476494e+04
93,6.308552877973199191e-01,7.739977458448209224e-02,1.900057840594094900e-03,1.858531104602435757e+00,1.040694252112021786e+04
94,6.445776740565503093e-01,7.908336792523376624e-02,1.941387737139627047e-03,1.858630492815658064e+00,1.038278527922327339e+04
95,6.583000603157772579e-01,8.076696126599036685e-02,1.982717633656998994e-03,1.858801307090570676e+00,1.035924091690020941e+04
96,6.720224465750095355e-01,8.245055460675369818e-02,2.024047530146208789e-03,1.859021551660843929e+00,1.033617137714361343e+04
97,6.857448328342452548e-01,8.413414794751306047e-02,2.065377426607257951e-03,1.859278559839048217e+00,1.031348918008212968e+04
98,6.994672190934756451e-01,8.581774128827027170e-02,2.106707323040146046e-03,1.859263899536839126e+00,1.028958729949178996e+04
99,7.131896053527044810e-01,8.750133462902710824e-02,2.148037219444876109e-03,1.859138902646739311e+00,1.026556581007412387e+04
100,7.269119916119330949e-01,8.918492796978351456e-02,2.189367115821442070e-03,1.858859410132517986e+00,1.024105855389828321e+04
101,7.406343778711634851e-01,9.086852131054840020e-02,2.230697012169846963e-03,1.858427927128535329e+00,1.021613180769370956e+04
102,7.543567641303920990e-01,9.255211465131292503e-02,2.272026908490092957e-03,1.857901762994012440e+00,1.019109799560776992e+04
103,7.680791503896241545e-01,9.423570799207878212e-02,2.313356804782177884e-03,1.857372492739777448e+00,1.016641861046499798e+04
104,7.818015366488508811e-01,9.591930133284784499e-02,2.354686701046102178e-03,1.856896060904215329e+00,1.014233820592649863e+04
105,7.955239229080779406e-01,9.760289467361474292e-02,2.396016597281865838e-03,1.856588634783867153e+00,1.011943731371363901e+04
106,8.092463091673155473e-01,9.928648801438480498e-02,2.437346493489470165e-03,1.856331812783148516e+00,1.009699384965119316e+04
107,8.229686954265441612e-01,1.009700813551580034e-01,2.478676389668912992e-03,1.856373761854100968e+00,1.007644601004592732e+04
108,8.366910816857727751e-01,1.026536746959326035e-01,2.520006285820193884e-03,1.856510170587944319e+00,1.005650325546356726e+04
109,8.504134679450067180e-01,1.043372680367068012e-01,2.561336181943314142e-03,1.856750291099272143e+00,1.003742637708254188e+04
110,8.641358542042355539e-01,1.060208613774805964e-01,2.602666078038272900e-03,1.857083431607594814e+00,1.001914725384819758e+04
111,8.778582404634676095e-01,1.077044547182593043e-01,2.643995974105071024e-03,1.857499336703130277e+00,1.000161784061788603e+04
112,8.915806267226997761e-01,1.093880480590394971e-01,2.685325870143709815e-03,1.857977501151876654e+00,9.984742840777447782e+03
113,9.053030129819283900e-01,1.110716413998174001e-01,2.726655766154187973e-03,1.858475025126707925e+00,9.968307925438943130e+03
114,9.190253992411587802e-01,1.127552347405984950e-01,2.767985662136505931e-03,1.858942501123752367e+00,9.952042150581813985e+03
115,9.327477855003853957e-01,1.144388280813792014e-01,2.809315558090662822e-03,1.859352449984466027e+00,9.935798120134404599e+03
116,9.464701717596155639e-01,1.161224214221648066e-01,2.850645454016656911e-03,1.859656914992747101e+00,9.919261182603167981e+03
117,9.601925580188481746e-01,1.178060147629537008e-01,2.891975349914492101e-03,1.859906891642710836e+00,9.902783811590446930e+03
118,9.739149442780772326e-01,1.194896081037385982e-01,2.933305245784167958e-03,1.859926124316842566e+00,9.885235203430667752e+03
119,9.876373305373109535e-01,1.211732014445248001e-01,2.974635141625681014e-03,1.859851352869558383e+00,9.867551408258357696e+03
120,1.001359716796542898e+00,1.228567947853141940e-01,3.015965037439033002e-03,1.859672248416010643e+00,9.849522464640171165e+03
121,1.015082103055771956e+00,1.245403881261067935e-01,3.057294933224226092e-03,1.859397185668972829e+00,9.831189360770787971e+03
122,1.028804489315001902e+00,1.262239814669008087e-01,3.098624828981255946e-03,1.859057064728456554e+00,9.812699747313326952e+03
123,1.042526875574230960e+00,1.279075748076924923e-01,3.139954724710126033e-03,1.858686384001394742e+00,9.794225091477337628e+03
124,1.056249261833462905e+00,1.295911681484857025e-01,3.181284620410835054e-03,1.858313993711453671e+00,9.775917036297001687e+03
125,1.069971648092697070e+00,1.312747614892819936e-01,3.222614516083383007e-03,1.857954417687889048e+00,9.757825475393130546e+03
126,1.083694034351927016e+00,1.329583548300797002e-01,3.263944411727772062e-03,1.857639630664811303e+00,9.740165984679309986e+03
127,1.097416420611150967e+00,1.346419481708789057e-01,3.305274307344003085e-03,1.857262409876338394e+00,9.722214382626843872e+03
128,1.111138806870380025e+00,1.363255415116811919e-01,3.346604202932070005e-03,1.857877881280317611e+00,9.728071135212185254e+03
129,1.126282288295705092e+00,1.371673381821655879e-01,3.367269149047878198e-03,1.013626844905376467e+00,5.882025279081812187e+03
130,1.142581966275461935e+00,1.371673381823272087e-01,3.367269145758897131e-03,9.285127498540715063e-01,5.166000856810776895e+03
131,1.158360633294942987e+00,1.371673381824836113e-01,3.367269142574983061e-03,8.705474454330798251e-01,4.808922738434469466e+03
132,1.173635581206531997e+00,1.371673381826349902e-01,3.367269139492713812e-03,8.319638558133076733e-01,4.573838874721243883e+03
133,1.188423549836479909e+00,1.371673381827815952e-01,3.367269136508713179e-03,8.030992633115944246e-01,4.393797316324077656e+03
134,1.202740745330082905e+00,1.371673381829235094e-01,3.367269133619708171e-03,7.797097178041831889e-01,4.246944961254333975e+03
135,1.216602857912038926e+00,1.371673381830610106e-01,3.367269130822529016e-03,7.600068527334119528e-01,4.123449545331967784e+03
136,1.230025079081358941e+00,1.371673381831939875e-01,3.367269128114113060e-03,7.432305229633509036e-01,4.018471486487693255e+03
137,1.243022118259738962e+00,1.371673381833229122e-01,3.367269125491499128e-03,7.289971350141140061e-01,3.929192615560029481e+03
138,1.255608218911627105e+00,1.371673381834475902e-01,3.367269122951801943e-03,7.170016187519345774e-01,3.853375663639970753e+03
139,1.267797174153658002e+00,1.371673381835684935e-01,3.367269120492242043e-03,7.069053134423108897e-01,3.788841997066312615e+03
140,1.279602341870522020e+00,1.371673381836855110e-01,3.367269118110128006e-03,6.983891872105203458e-01,3.733574794929480049e+03
141,1.291036659353886007e+00,1.371673381837988093e-01,3.367269115802846036e-03,6.911571509457901108e-01,3.685874049814606678e+03
142,1.302112657449483901e+00,1.371673381839086103e-01,3.367269113567865173e-03,6.850204458536502949e-01,3.644501820656294058e+03
143,1.312842474431652917e+00,1.371673381840149974e-01,3.367269111402739889e-03,6.798202230711504201e-01,3.608576091611840639e+03
144,1.323237869077773965e+00,1.371673381841181094e-01,3.367269109305097083e-03,6.754338021722897656e-01,3.577370508899731249e+03
145,1.333310233646358922e+00,1.371673381842178907e-01,3.367269107272639114e-03,6.717541770806750856e-01,3.550239293859907775e+03
146,1.343070606513597109e+00,1.371673381843145911e-01,3.367269105303133826e-03,6.686844246313108364e-01,3.526616201134871972e+03
147,1.352529684066416937e+00,1.371673381844084050e-01,3.367269103394424958e-03,6.661361097753635274e-01,3.506002925269703610e+03
148,1.361697832492333005e+00,1.371673381844993045e-01,3.367269101544426071e-03,6.640319639295175769e-01,3.487970640419180199e+03
149,1.370585099272566998e+00,1.371673381845874007e-01,3.367269099751101034e-03,6.623072822890262445e-01,3.472161734141277066e+03
150,1.379201223841775015e+00,1.371673381846728046e-01,3.367269098012487007e-03,6.609093429480983328e-01,3.458285275459830245e+03
151,1.387555648587345036e+00,1.371673381847557105e-01,3.367269096326681865e-03,6.597937599989552870e-01,3.446094254366342739e+03
152,1.395657529276165043e+00,1.371673381848360074e-01,3.367269094691838129e-03,6.589249881454399826e-01,3.435396454988776441e+03
153,1.403515744671748999e+00,1.371673381849138895e-01,3.367269093106162962e-03,6.582653561052619340e-01,3.425970945621302235e+03
154,1.411138906621770994e+00,1.371673381849894124e-01,3.367269091567916869e-03,6.577980529949479793e-01,3.417760259337628213e+03
