,x/h,pressure
0,-4.040000000003600711e+00,8.692201795799049391e-01
1,-4.037159084091998196e+00,8.668676989528609766e-01
2,-4.034298644719595650e+00,8.649800616595039182e-01
3,-4.031405005882304771e+00,8.649989901914041379e-01
4,-4.028478163254328059e+00,8.650310494083006674e-01
5,-4.025518112530261483e+00,8.650441800932969771e-01
6,-4.022524849424806703e+00,8.650934078909090497e-01
7,-4.019498369673282667e+00,8.651304639906236549e-01
8,-4.016438669030550024e+00,8.651691735512425652e-01
9,-4.013345743271790944e+00,8.652276737083067770e-01
10,-4.010219588191334061e+00,8.652468007355309521e-01
11,-4.007060199603072803e+00,8.652842411699008807e-01
12,-4.003867573340438746e+00,8.653025545770474114e-01
13,-4.000641705255577385e+00,8.653533732330324080e-01
14,-3.997382591219495573e+00,8.653845139448121948e-01
15,-3.994090227122113479e+00,8.654133968174664293e-01
16,-3.990764608871704588e+00,8.654533018526897603e-01
17,-3.987405732394591062e+00,8.654650122151449354e-01
18,-3.984013593635272965e+00,8.654874611815640550e-01
19,-3.980588188556564155e+00,8.654981997855281106e-01
20,-3.977129513138159211e+00,8.655266610295456742e-01
21,-3.973637563377779625e+00,8.655436189317168294e-01
22,-3.970112335289843308e+00,8.655590851037288092e-01
23,-3.966553824906354553e+00,8.655797526259982888e-01
24,-3.962962028275543336e+00,8.655860595008971758e-01
25,-3.959336941462678006e+00,8.655978676645401659e-01
26,-3.955678560549052314e+00,8.656134846914842473e-01
27,-3.951986881632273185e+00,8.656178751601120158e-01
28,-3.948261903628640823e+00,8.656263637719232573e-01
29,-3.944503628695539277e+00,8.656342540897024040e-01
30,-3.940712044810283921e+00,8.656478352527554598e-01
31,-3.936887148609322651e+00,8.656538617265829849e-01
32,-3.933028936768595329e+00,8.656587226077251396e-01
33,-3.929137406003641253e+00,8.656644448925976398e-01
34,-3.925212585155374967e+00,8.656675757996474818e-01
35,-3.921254417667050518e+00,8.656734737375881839e-01
36,-3.917262922563404803e+00,8.656789473828198078e-01
37,-3.913238096454852766e+00,8.656816539971612379e-01
38,-3.909179935978734033e+00,8.656890030142839754e-01
39,-3.905088437799456802e+00,8.656936519467098856e-01
40,-3.900963598609048066e+00,8.656959251135539768e-01
41,-3.896805415126006977e+00,8.657028619107988154e-01
42,-3.892613884095613930e+00,8.657072520324397003e-01
43,-3.888389002291961383e+00,8.657116079212553439e-01
44,-3.884130766513013810e+00,8.657181575315379130e-01
45,-3.879839173585932333e+00,8.657203261015605777e-01
46,-3.875514220366266027e+00,8.657246468390649152e-01
47,-3.871155903734915693e+00,8.657267990065459218e-01
48,-3.866764220598977175e+00,8.657335305478056631e-01
49,-3.862339167894666137e+00,8.657381850457147587e-01
50,-3.857880742584179679e+00,8.657427870933086522e-01
51,-3.853388941658034472e+00,8.657498818554727471e-01
52,-3.848863762133061694e+00,8.657523412776060301e-01
53,-3.844305201052759191e+00,8.657573105051478146e-01
54,-3.839713255489166421e+00,8.657598203105563162e-01
55,-3.835087917037756977e+00,8.657676290419128451e-01
56,-3.830429210753898417e+00,8.657730527691669398e-01
57,-3.825737111390063561e+00,8.657786749493929790e-01
58,-3.821011570778205080e+00,8.657873611187886231e-01
59,-3.816252659819364013e+00,8.657903677180011082e-01
60,-3.811460347377247704e+00,8.657964955313056654e-01
61,-3.806634630712661505e+00,8.657996167453978487e-01
62,-3.801775507115927599e+00,8.658093146267569207e-01
63,-3.796882980334034041e+00,8.658159924525576923e-01
64,-3.791957037904186922e+00,8.658230531787030060e-01
65,-3.786997671497418061e+00,8.658340767653540659e-01
66,-3.782004876692172779e+00,8.658378896051824869e-01
67,-3.776978692181143682e+00,8.658456129630345277e-01
68,-3.771919071593722972e+00,8.658495234810582586e-01
69,-3.766826025863847960e+00,8.658618953523103956e-01
70,-3.761699552498827703e+00,8.658704396485297217e-01
71,-3.756539639698857069e+00,8.658792442291848301e-01
72,-3.751346292765857182e+00,8.658930740818455707e-01
73,-3.746119537715806747e+00,8.658978725130664911e-01
74,-3.740859333807602827e+00,8.659076354532931896e-01
75,-3.735565685845618766e+00,8.659125999622990788e-01
76,-3.730238601027395795e+00,8.659281321528879971e-01
77,-3.724878040116859079e+00,8.659388999215584803e-01
78,-3.719484076129095929e+00,8.659499620568668066e-01
79,-3.714056640181936597e+00,8.659670422728787953e-01
80,-3.708595779865759390e+00,8.659731738648472898e-01
81,-3.703101447906084420e+00,8.659855133298103302e-01
82,-3.697573632665581922e+00,8.659917212028049871e-01
83,-3.692012401473975025e+00,8.660110971767969179e-01
84,-3.686417693364243853e+00,8.660244953248650290e-01
85,-3.680789505793284455e+00,8.660383402325358970e-01
86,-3.675127892986520539e+00,8.660597896407680185e-01
87,-3.669432795089306865e+00,8.660671984650768485e-01
88,-3.663704229360764231e+00,8.660823436562565814e-01
89,-3.657942193853036539e+00,8.660900800231280394e-01
90,-3.652146686491411387e+00,8.661141417558694267e-01
91,-3.646317705923806773e+00,8.661306809999662626e-01
92,-3.640455249429763729e+00,8.661477222779859764e-01
93,-3.634559315839893667e+00,8.661741272823503257e-01
94,-3.628629902524584505e+00,8.661832722545371732e-01
95,-3.622667010539947885e+00,8.662019556530792253e-01
96,-3.616670632195522650e+00,8.662114940794344298e-01
97,-3.610640770837525437e+00,8.662410614126351271e-01
98,-3.604577423359720978e+00,8.662613454801825208e-01
99,-3.598480589945202812e+00,8.662822504655739442e-01
100,-3.592350262770906522e+00,8.663147480909730858e-01
101,-3.586186446399759475e+00,8.663259963917178119e-01
102,-3.579989137095545892e+00,8.663488028156991483e-01
103,-3.573758333215702354e+00,8.663603609389365356e-01
104,-3.567494033538063825e+00,8.663963222956251320e-01
105,-3.561196236274033922e+00,8.664212291036772484e-01
106,-3.554864939904491372e+00,8.664467900186383353e-01
107,-3.548500142873961316e+00,8.664863502568305176e-01
108,-3.542101844055046023e+00,8.665000710428821806e-01
109,-3.535670041896906923e+00,8.665278715740759585e-01
110,-3.529204734252504583e+00,8.665419513192190726e-01
111,-3.522705921708559007e+00,8.665855519453399269e-01
112,-3.516173601056646003e+00,8.666158003905175544e-01
113,-3.509607771645598007e+00,8.666470848679143080e-01
114,-3.503008432162520780e+00,8.666952270429781890e-01
115,-3.496375584304073136e+00,8.667118350554401385e-01
116,-3.489709202698893176e+00,8.667455683691663859e-01
117,-3.483009341358179523e+00,8.667626936704300178e-01
118,-3.476275946613955004e+00,8.668159448575778470e-01
119,-3.469509040883830053e+00,8.668525075091396692e-01
120,-3.462708615846543214e+00,8.668901789322077667e-01
121,-3.455874672433257189e+00,8.669486675016382371e-01
122,-3.449007209616172798e+00,8.669688724983461992e-01
123,-3.442106226606943320e+00,8.670097837686001618e-01
124,-3.435171722102800196e+00,8.670732509739049743e-01
125,-3.428203695600495760e+00,8.670951168985263635e-01
126,-3.421202145677963546e+00,8.671393067384708386e-01
127,-3.414167071741748050e+00,8.671843136222170401e-01
128,-3.407098472499014097e+00,8.672069965906398226e-01
129,-3.399996347198730007e+00,8.672804722350885287e-01
130,-3.392860695468173038e+00,8.673300662129650451e-01
131,-3.385691516434461867e+00,8.674067414970731971e-01
132,-3.378488808775711671e+00,8.674333434012453381e-01
133,-3.371252571980034141e+00,8.674872378776159465e-01
134,-3.363982805383361363e+00,8.675425773787751593e-01
135,-3.356679505872240732e+00,8.675706243077366819e-01
136,-3.349342679820891178e+00,8.676578381505772875e-01
137,-3.341972319825152749e+00,8.677181125119808325e-01
138,-3.334568427660754786e+00,8.678112757482183692e-01
139,-3.327131001890080153e+00,8.678434375569568093e-01
140,-3.319660042721722881e+00,8.679088209901822948e-01
141,-3.312155549469827598e+00,8.679760744734924538e-01
142,-3.304617521802872826e+00,8.680101063323163446e-01
143,-3.297045958995852288e+00,8.681155255080907907e-01
144,-3.289440860385161702e+00,8.681886955388804505e-01
145,-3.281802226376918430e+00,8.683018659872515643e-01
146,-3.274130055577161968e+00,8.683412385586100068e-01
147,-3.266424348444405101e+00,8.684206321486553914e-01
148,-3.258685104069122485e+00,8.685022822066720272e-01
149,-3.250912322657550035e+00,8.685439112460010547e-01
150,-3.243106003475418220e+00,8.686725915110534713e-01
151,-3.235266146302591128e+00,8.687613448274495997e-01
152,-3.227392751340384169e+00,8.688998670777402511e-01
153,-3.219485817950891171e+00,8.689467932055866539e-01
154,-3.211545346263859457e+00,8.690435155874817186e-01
155,-3.203571335987272839e+00,8.691429824090576295e-01
156,-3.195563787019155111e+00,8.691926529765841014e-01
157,-3.187522699398232184e+00,8.693508270975447427e-01
158,-3.179448073003091402e+00,8.694583292631922200e-01
159,-3.171339907066871078e+00,8.696222649267927318e-01
160,-3.163198203679111309e+00,8.696852684528625366e-01
161,-3.155022960581309377e+00,8.698057728296842983e-01
162,-3.146814174925668617e+00,8.699261334251362499e-01
163,-3.138571859007443177e+00,8.699889931698354673e-01
164,-3.130296000303766313e+00,8.701803326149959439e-01
165,-3.121986608814649955e+00,8.703132445039347687e-01
166,-3.113643668113897700e+00,8.705206253055194354e-01
167,-3.105267193620998345e+00,8.705907961707651799e-01
168,-3.096857183716527295e+00,8.707367364788506370e-01
169,-3.088413635127375212e+00,8.708864138571807967e-01
170,-3.079936549181086836e+00,8.709603217926703556e-01
171,-3.071425929757038542e+00,8.711990548305074133e-01
172,-3.062881766884582024e+00,8.713629356598828757e-01
173,-3.054304071378806995e+00,8.716158634641081315e-01
174,-3.045692839850684397e+00,8.717058486073386847e-01
175,-3.037048073474104992e+00,8.718852982711049471e-01
176,-3.028369771532800403e+00,8.720725653534692201e-01
177,-3.019657935364315815e+00,8.721703679152993383e-01
178,-3.010912565247092942e+00,8.724591331518292137e-01
179,-3.002133661672872655e+00,8.726624897327197594e-01
180,-2.993321225561572874e+00,8.729810444626290300e-01
181,-2.984475258058570724e+00,8.730888539998722386e-01
182,-2.975595759048609512e+00,8.733123903598459803e-01
183,-2.966682724957936834e+00,8.735432355241153912e-01
184,-2.957736163574654409e+00,8.736583538656551573e-01
185,-2.948756072318388988e+00,8.740290461325352922e-01
186,-2.939742454957454676e+00,8.742830747949120740e-01
187,-2.930695304170193083e+00,8.746770204289093797e-01
188,-2.921614628489127341e+00,8.748183465048737784e-01
189,-2.912500426728300340e+00,8.750994181336896327e-01
190,-2.903352699083892929e+00,8.753898193369096248e-01
191,-2.894171446672841430e+00,8.755404749872774950e-01
192,-2.884956670337465834e+00,8.760097492655417595e-01
193,-2.875708375188238630e+00,8.763330654197422076e-01
194,-2.866426544960711364e+00,8.768360592950158461e-01
195,-2.857111207539313913e+00,8.770060651911204541e-01
196,-2.847762345416909202e+00,8.773633427245128846e-01
197,-2.838379960351879561e+00,8.777347687612746530e-01
198,-2.828964065211202694e+00,8.783195652517749030e-01
199,-2.819514649309843524e+00,8.785184010800514143e-01
200,-2.810031717608679980e+00,8.789340006797661253e-01
201,-2.800515272342122941e+00,8.795770059209430114e-01
202,-2.790965312574829493e+00,8.798096611592465255e-01
203,-2.781381841033670810e+00,8.802732757580777889e-01
204,-2.771764859724449970e+00,8.807556811719668977e-01
205,-2.762114362686832081e+00,8.815063203874695663e-01
206,-2.752430367090659136e+00,8.817782996908645199e-01
207,-2.742712860024836719e+00,8.823207043049494658e-01
208,-2.732961855043579469e+00,8.831944381529175381e-01
209,-2.723177330374070504e+00,8.834817572413857789e-01
210,-2.713359310625486298e+00,8.840920321083269862e-01
211,-2.703507797061952544e+00,8.847327629375275615e-01
212,-2.693622765052206880e+00,8.850505379882549484e-01
213,-2.683704248282311688e+00,8.861009340499391707e-01
214,-2.673752232329688727e+00,8.868321769249453146e-01
215,-2.663766720774475072e+00,8.879782604219006448e-01
216,-2.653747715239336724e+00,8.884015128077753509e-01
217,-2.643695217535356967e+00,8.892410903105620879e-01
218,-2.633609222053686860e+00,8.901213327150214738e-01
219,-2.623489751986611385e+00,8.905852500025687180e-01
220,-2.613336787885477630e+00,8.920200217556510935e-01
221,-2.603150338098495276e+00,8.930427866269308179e-01
222,-2.592930400640968358e+00,8.935520021360390253e-01
223,-2.582676985493788546e+00,8.952575984597438419e-01
224,-2.572390093572534120e+00,8.964812396998025346e-01
225,-2.562069719927652311e+00,8.977705332680598893e-01
226,-2.551715870662829566e+00,8.998624824355750951e-01
227,-2.541328552197620549e+00,9.005821674296851098e-01
228,-2.530907833433900134e+00,9.020559134802860202e-01
229,-2.520453867553345884e+00,9.041761366737990357e-01
230,-2.509967041632781726e+00,9.048075734286579186e-01
231,-2.499448111700190989e+00,9.060931050032361433e-01
232,-2.488898201596161375e+00,9.072574131187493007e-01
233,-2.478318875355856932e+00,9.088361506191674488e-01
234,-2.467712160237202301e+00,9.092367238174684507e-01
235,-2.457080321404727652e+00,9.100540220321018392e-01
236,-2.446425974057243380e+00,9.104707470484347809e-01
237,-2.435751923082738912e+00,9.113622860019880978e-01
238,-2.425060785331424995e+00,9.118020692645310010e-01
239,-2.414355005817829802e+00,9.121066057920632630e-01
240,-2.403637203204993078e+00,9.122692382140424883e-01
241,-2.392909881254575044e+00,9.122598646106815368e-01
242,-2.382175206534856926e+00,9.121194818559991147e-01
243,-2.371434665508274975e+00,9.117076712936778016e-01
244,-2.360689562287604737e+00,9.114401069440375425e-01
245,-2.349941040973750006e+00,9.109117527127968961e-01
246,-2.339190111052395604e+00,9.102548750087168239e-01
247,-2.328437361987011567e+00,9.098587871862376941e-01
248,-2.317682821779509350e+00,9.085506418746854829e-01
249,-2.306926358477618066e+00,9.075267421172211746e-01
250,-2.296167765799488780e+00,9.057804091785700562e-01
251,-2.285406777112366061e+00,9.051598625347770932e-01
252,-2.274642854018968485e+00,9.038028630071113234e-01
253,-2.263875001298275347e+00,9.023370732430835428e-01
254,-2.253102179930764226e+00,9.016077363629279029e-01
255,-2.242323434898686685e+00,8.991271309138390011e-01
256,-2.231537832866783422e+00,8.973680669734590554e-01
257,-2.220744258518610348e+00,8.964360425848427738e-01
258,-2.209941198028718023e+00,8.935848267029207204e-01
259,-2.199127253964349382e+00,8.915640262736530541e-01
260,-2.188301180717879380e+00,8.894636009219388795e-01
261,-2.177461864339309106e+00,8.861918560346767615e-01
262,-2.166607941229480971e+00,8.850235712315787096e-01
263,-2.155737700188199657e+00,8.826781652564249514e-01
264,-2.144849709045582031e+00,8.815010440843682460e-01
265,-2.133942743147827059e+00,8.778102045380512530e-01
266,-2.123015814739860119e+00,8.752737726558152964e-01
267,-2.112067362601739884e+00,8.726561593291345398e-01
268,-2.101095664908823046e+00,8.686367754117464424e-01
269,-2.090099455832271858e+00,8.672709700132156252e-01
270,-2.079077750490890164e+00,8.644986928617595101e-01
271,-2.068029182156752910e+00,8.630922211088344342e-01
272,-2.056952893041729347e+00,8.588019974476303053e-01
273,-2.045847929435547385e+00,8.558504516568574694e-01
274,-2.034711808299535019e+00,8.528624288025644651e-01
275,-2.023544301982693305e+00,8.483195344442677754e-01
276,-2.012344069143146896e+00,8.467786117654018119e-01
277,-2.001110358602462558e+00,8.436826235902997739e-01
278,-1.989842439926880369e+00,8.421275580940636996e-01
279,-1.978539148487570953e+00,8.373354286840571925e-01
280,-1.967198937882328691e+00,8.341055333042656228e-01
281,-1.955821254019758149e+00,8.308554040811816366e-01
282,-1.944405442373126069e+00,8.259232150635923420e-01
283,-1.932950691626407425e+00,8.242572821635757441e-01
284,-1.921456044129141727e+00,8.209104904708660611e-01
285,-1.909920713605371745e+00,8.192296316781723098e-01
286,-1.898344144290358582e+00,8.141502597498414540e-01
287,-1.886725722689456486e+00,8.107322761534053734e-01
288,-1.875064779223681199e+00,8.073067458619865855e-01
289,-1.863360640667707235e+00,8.021251946910330499e-01
290,-1.851612810359156036e+00,8.003874153018022408e-01
291,-1.839820850680017550e+00,7.969081962051328683e-01
292,-1.827984285367187933e+00,7.951667564976941938e-01
293,-1.816102607648239609e+00,7.899203492484173639e-01
294,-1.804175331104988178e+00,7.864156667676868162e-01
295,-1.792202180679886903e+00,7.829080694442356325e-01
296,-1.780182917867979109e+00,7.776331222027799139e-01
297,-1.768117300691400162e+00,7.758713638160061876e-01
298,-1.756005086784399927e+00,7.723476529789767842e-01
299,-1.743846031702319221e+00,7.670582774670757775e-01
300,-1.731639888352168200e+00,7.653019535466571988e-01
301,-1.719386421525041841e+00,7.617871819571221392e-01
302,-1.707085398901553308e+00,7.582867487776909776e-01
303,-1.694736798229342201e+00,7.530468878928687770e-01
304,-1.682340605252635735e+00,7.513249086160401768e-01
305,-1.669896810217353256e+00,7.478758808060774754e-01
306,-1.657405411801186945e+00,7.427168445101277605e-01
307,-1.644866414825822076e+00,7.409991351826202832e-01
308,-1.632279827931688354e+00,7.375846127373345551e-01
309,-1.619645668786663828e+00,7.341892271177082874e-01
310,-1.606963960725650065e+00,7.291471313888967520e-01
311,-1.594234793794885530e+00,7.274742327626985139e-01
312,-1.581458311575020925e+00,7.241585445069599336e-01
313,-1.568634690534648435e+00,7.225157548774195915e-01
314,-1.555764091886576939e+00,7.176096975715537951e-01
315,-1.542846686974790993e+00,7.143715403076659198e-01
316,-1.529882648700492176e+00,7.111629724251773421e-01
317,-1.516872156757387291e+00,7.095744936094027233e-01
318,-1.503815391973091664e+00,7.048404438143530681e-01
319,-1.490712550975022976e+00,7.017120317673958274e-01
320,-1.477563893826097097e+00,6.971339476045775863e-01
321,-1.464369677721005791e+00,6.956163539306061683e-01
322,-1.451130167859318254e+00,6.926130327723618585e-01
323,-1.437845626272681310e+00,6.896395628641253106e-01
324,-1.424516312893912895e+00,6.881518204401617655e-01
325,-1.411142487397670786e+00,6.838011634736392841e-01
326,-1.397724410076588875e+00,6.809383296250063333e-01
327,-1.384262340704551786e+00,6.766994331621821734e-01
328,-1.370756573707590409e+00,6.753288306389686468e-01
329,-1.357207410244837487e+00,6.725869275908129552e-01
330,-1.343615145823319201e+00,6.698804214216281805e-01
331,-1.329980072909933142e+00,6.685452157773857929e-01
332,-1.316302475699249630e+00,6.645750103042747936e-01
333,-1.302582633972379611e+00,6.619784657949994156e-01
334,-1.288820823743883404e+00,6.581594688402541138e-01
335,-1.275017317074555567e+00,6.568972709143957589e-01
336,-1.261172407619495894e+00,6.544152310809142614e-01
337,-1.247286382944020167e+00,6.519805212449334419e-01
338,-1.233359529133240429e+00,6.507656533165757651e-01
339,-1.219392122531196554e+00,6.472044917301215117e-01
340,-1.205384430850771516e+00,6.448681267538055595e-01
341,-1.191336714844861477e+00,6.414232675892720392e-01
342,-1.177249227938465426e+00,6.403024374426212750e-01
343,-1.163122220019627617e+00,6.380724561986382826e-01
344,-1.148955949288018363e+00,6.358790016502723352e-01
345,-1.134750671119964416e+00,6.347946981992385052e-01
346,-1.120506630814448679e+00,6.315938477868697776e-01
347,-1.106224067303979597e+00,6.294960598323104950e-01
348,-1.091903207294083522e+00,6.264065492936129464e-01
349,-1.077544271045702606e+00,6.253924520597440306e-01
350,-1.063147471639342090e+00,6.233896530722933260e-01
351,-1.048712998365013860e+00,6.214123087267879875e-01
352,-1.034241064515384556e+00,6.204236661348646598e-01
353,-1.019731886710290691e+00,6.175800120961874029e-01
354,-1.005185671066485487e+00,6.157047814258216345e-01
355,-9.906026166345264228e-01,6.147761464476583226e-01
356,-9.759829128677168786e-01,6.120314250462812744e-01
357,-9.613267357377902611e-01,6.102289532421184548e-01
358,-9.466342559725180461e-01,6.084478987414946305e-01
359,-9.319056400929661699e-01,6.075636716751678934e-01
360,-9.171410463158282678e-01,6.049454116834754869e-01
361,-9.023406243467579912e-01,6.032268092013913785e-01
362,-8.875045172115579861e-01,6.006854130562129246e-01
363,-8.726328613984450921e-01,5.998529413156047374e-01
364,-8.577257912513255311e-01,5.982015479677347258e-01
