,x/h,pressure
0,-4.040000000003600711e+00,8.680974872479104709e-01
1,-4.034318169511725394e+00,8.646191729662323633e-01
2,-4.028558034206470850e+00,8.648077651277044087e-01
3,-4.022664720666720761e+00,8.650344478726298414e-01
4,-4.016638193053732486e+00,8.651122155803370184e-01
5,-4.010478415869123126e+00,8.651922672446015206e-01
6,-4.004185353948752635e+00,8.652712600996208536e-01
7,-3.997758972458195892e+00,8.653437275427906528e-01
8,-3.991199236884781953e+00,8.654361600865270177e-01
9,-3.984506113032515895e+00,8.654607440269257435e-01
10,-3.977679567015304674e+00,8.655054140773165150e-01
11,-3.970719565250377947e+00,8.655425834393981610e-01
12,-3.963626074451395809e+00,8.655734136686396019e-01
13,-3.956399061622188462e+00,8.655988265007023008e-01
14,-3.949038494475732186e+00,8.656202650800428611e-01
15,-3.941544363257190930e+00,8.656464147004607756e-01
16,-3.933916616809479905e+00,8.656536296343381176e-01
17,-3.926155227229740863e+00,8.656670320618913284e-01
18,-3.918260218916668425e+00,8.656789178672450458e-01
19,-3.910231486834111703e+00,8.656897040179577507e-01
20,-3.902069032491373157e+00,8.656998215450045775e-01
21,-3.893772828189929758e+00,8.657094015316961766e-01
22,-3.885342846683547791e+00,8.657229423130933244e-01
23,-3.876779061178766028e+00,8.657274795008200741e-01
24,-3.868081445335874946e+00,8.657367211488528058e-01
25,-3.859249973266059008e+00,8.657460769382251398e-01
26,-3.850284619538229425e+00,8.657556846658109873e-01
27,-3.841185359173291403e+00,8.657658726812553773e-01
28,-3.831952174295006674e+00,8.657766374771730389e-01
29,-3.822585020890113761e+00,8.657937498749354033e-01
30,-3.813083895289373082e+00,8.657999332564563222e-01
31,-3.803448767686711474e+00,8.658125868536319381e-01
32,-3.793679623036315895e+00,8.658263800897234574e-01
33,-3.783776409432529686e+00,8.658412069799835686e-01
34,-3.773739148132034149e+00,8.658567881244400022e-01
35,-3.763567790069682228e+00,8.658734141723114508e-01
36,-3.753262301292063619e+00,8.659005392397761680e-01
37,-3.742822739812659449e+00,8.659103246522915631e-01
38,-3.732248970971809410e+00,8.659305113122371944e-01
39,-3.721541027017227776e+00,8.659519219914956212e-01
40,-3.710698942204277095e+00,8.659750989619690031e-01
41,-3.699722607340066194e+00,8.659998709115444004e-01
42,-3.688612094184802626e+00,8.660259469834699075e-01
43,-3.677367274456229573e+00,8.660677837753201214e-01
44,-3.665988221505452671e+00,8.660831306608678393e-01
45,-3.654474890010309007e+00,8.661144919438511502e-01
46,-3.642827264651123276e+00,8.661475388462840375e-01
47,-3.631045328547740869e+00,8.661825754256764487e-01
48,-3.619129067421317902e+00,8.662201969589409245e-01
49,-3.607078465054729399e+00,8.662601203488726753e-01
50,-3.594893508688852712e+00,8.662804262799351784e-01
51,-3.582574182874116442e+00,8.663463855873292374e-01
52,-3.570120474562520574e+00,8.663934792297717236e-01
53,-3.557532370141488709e+00,8.664434063165066258e-01
54,-3.544809858341547937e+00,8.664959168763238795e-01
55,-3.531952926177243324e+00,8.665511802036380828e-01
56,-3.518961562306438751e+00,8.666102607827358417e-01
57,-3.505835755249997909e+00,8.667049740675709657e-01
58,-3.492575494502761835e+00,8.667387730599157569e-01
59,-3.479180769754354863e+00,8.668081434049633716e-01
60,-3.465651571035595513e+00,8.668817427818756860e-01
61,-3.451987889309270585e+00,8.669595296682539587e-01
62,-3.438189715228014087e+00,8.670412329531245188e-01
63,-3.424257041094634246e+00,8.671270922261570258e-01
64,-3.410189858542734154e+00,8.672670802201937201e-01
65,-3.395988159602429945e+00,8.673166443315639684e-01
66,-3.381651932739698108e+00,8.674187128461543494e-01
67,-3.367181187608109028e+00,8.675263932919640153e-01
68,-3.352575901260689051e+00,8.676406484216911963e-01
69,-3.337836073645820800e+00,8.677615425011724337e-01
70,-3.322961699968277394e+00,8.678887327260924600e-01
71,-3.307952775534213963e+00,8.680912697478599949e-01
72,-3.292809295165604944e+00,8.681656141608273813e-01
73,-3.277531257162797917e+00,8.683162591598430069e-01
74,-3.262118656681652684e+00,8.684751644901270717e-01
75,-3.246571500405086574e+00,8.686432850435504838e-01
76,-3.230889757986025401e+00,8.688218302533716741e-01
77,-3.215073456014045483e+00,8.690096252406160904e-01
78,-3.199122583404609532e+00,8.693142072707901180e-01
79,-3.183037139359277568e+00,8.694201762496008845e-01
80,-3.166817123418063762e+00,8.696461663345392834e-01
81,-3.150462535451464152e+00,8.698825587835595785e-01
82,-3.133973375802657113e+00,8.701326475521907744e-01
83,-3.117349646173206867e+00,8.703986143652628904e-01
84,-3.100591347196675507e+00,8.706822900619020089e-01
85,-3.083698480851959189e+00,8.711304358175848694e-01
86,-3.066671045452652677e+00,8.713001987476173271e-01
87,-3.049509056747277569e+00,8.716384934851468813e-01
88,-3.032212497572766008e+00,8.720023106049331618e-01
89,-3.014781398515836486e+00,8.723847104892850091e-01
90,-2.997215743499806795e+00,8.727901856511446343e-01
91,-2.979515537399816338e+00,8.732242486666506043e-01
92,-2.961680793179020554e+00,8.739383946090300004e-01
93,-2.943711513661742885e+00,8.741825836864395294e-01
94,-2.925607705026859406e+00,8.747098673731751317e-01
95,-2.907369373896238507e+00,8.752729303898202362e-01
96,-2.888996527339234177e+00,8.758920774312212165e-01
97,-2.870489172742195727e+00,8.765373285145516835e-01
98,-2.851847318347595639e+00,8.772207018239741583e-01
99,-2.833070972610659322e+00,8.783326450894706205e-01
100,-2.814160155473540925e+00,8.787687129413151998e-01
101,-2.795114842907402419e+00,8.796307057757714043e-01
102,-2.775935070382929748e+00,8.805607926357914561e-01
103,-2.756620860930220740e+00,8.815650201433613553e-01
104,-2.737172197067013979e+00,8.826723690695313929e-01
105,-2.717589111421531811e+00,8.838516775796019243e-01
106,-2.697871602847981887e+00,8.858336301827024473e-01
107,-2.678019686740902738e+00,8.865283649834362345e-01
108,-2.658033376722702457e+00,8.880712469540242848e-01
109,-2.637912686618872904e+00,8.897474669083131893e-01
110,-2.617657629090611504e+00,8.915940391399811427e-01
111,-2.597268218591050282e+00,8.936222414591792340e-01
112,-2.576744463375652661e+00,8.959358935158590054e-01
113,-2.556086397846915936e+00,8.972398427005723320e-01
114,-2.535294054194129565e+00,9.011369403324579475e-01
115,-2.514368161561968407e+00,9.038939436361520530e-01
116,-2.493312357052547945e+00,9.062519725849198515e-01
117,-2.472136130798291198e+00,9.083360170654571908e-01
118,-2.450855415845852203e+00,9.101034926467419517e-01
119,-2.429490897665709248e+00,9.114971472327073609e-01
120,-2.408063441485295275e+00,9.124063758490530418e-01
121,-2.386593414116525480e+00,9.124083972460850234e-01
122,-2.365097005147870579e+00,9.118552712704526275e-01
123,-2.343584747577004634e+00,9.107532710187526970e-01
124,-2.322063754444091188e+00,9.091087983395617078e-01
125,-2.300535021491740828e+00,9.069869993150215803e-01
126,-2.278996837862009350e+00,9.044610210161463382e-01
127,-2.257444218932754154e+00,9.000149104078137841e-01
128,-2.235869245919673620e+00,8.981338731890701199e-01
129,-2.214263767042561781e+00,8.944078192258025917e-01
130,-2.192616828228892256e+00,8.903645244321690688e-01
131,-2.170918380830485273e+00,8.859688799457380304e-01
132,-2.149157144403597286e+00,8.812865795655325796e-01
133,-2.127321787759040017e+00,8.763179827701564895e-01
134,-2.105402345200723779e+00,8.683664453447055287e-01
135,-2.083386682198503870e+00,8.656310983490990152e-01
136,-2.061265534462133342e+00,8.599654877089525362e-01
137,-2.039030070514268100e+00,8.540557439315543675e-01
138,-2.016669034841392705e+00,8.479909922524431209e-01
139,-1.994175073159943690e+00,8.417749044288528326e-01
140,-1.971540737251107345e+00,8.353894926411529198e-01
141,-1.948757154756302956e+00,8.321348971307911402e-01
142,-1.925818558962173910e+00,8.222166728487716458e-01
143,-1.902718113958449031e+00,8.154580608672603592e-01
144,-1.879450743675113333e+00,8.086362832387026245e-01
145,-1.856011234148048805e+00,8.017396888460478488e-01
146,-1.832395408757139244e+00,7.947830501458788000e-01
147,-1.808599444308515602e+00,7.877881703382723089e-01
148,-1.784619978945835683e+00,7.772499286634975135e-01
149,-1.760455014164075793e+00,7.737142596632895497e-01
150,-1.736102575444782081e+00,7.666548939205320989e-01
151,-1.711560711865439677e+00,7.595903479106457246e-01
152,-1.686828150252648317e+00,7.526072244435602077e-01
153,-1.661904734351485446e+00,7.457048700913588846e-01
154,-1.636790456141274497e+00,7.388502757687492872e-01
155,-1.611485404144600952e+00,7.286456093671672685e-01
156,-1.585989952820278770e+00,7.253620051545690561e-01
157,-1.560305240323522025e+00,7.187905209207623436e-01
158,-1.534432606411420652e+00,7.123231938052734247e-01
159,-1.508373454594406748e+00,7.059371274668669871e-01
160,-1.482129307706400834e+00,6.997195725708418301e-01
161,-1.455702123391253711e+00,6.936797276574062643e-01
162,-1.429094008997716880e+00,6.848337876297770910e-01
163,-1.402307055715890982e+00,6.819414351031026778e-01
164,-1.375343366418906976e+00,6.762936342000075429e-01
165,-1.348205255520477763e+00,6.708141779077961830e-01
166,-1.320895093544188326e+00,6.654831934584263253e-01
167,-1.293415161402184488e+00,6.602919179720915244e-01
168,-1.265767687124029095e+00,6.552533545239569435e-01
169,-1.237954964573489525e+00,6.479881571599147572e-01
170,-1.209979265300904716e+00,6.456610221648609871e-01
171,-1.181842732726065437e+00,6.410680687969912972e-01
172,-1.153547408776561589e+00,6.366162447469202457e-01
173,-1.125095339961438512e+00,6.323060209325428449e-01
174,-1.096488490407014016e+00,6.281214396948578971e-01
175,-1.067728680454705259e+00,6.240506477776294192e-01
176,-1.038817582530948025e+00,6.181962279862677212e-01
177,-1.009756869070154162e+00,6.163199890044486207e-01
178,-9.805481914478844097e-01,6.126231243060360487e-01
179,-9.511930473122346408e-01,6.090204518044082249e-01
180,-9.216928031197737514e-01,6.055049654314325069e-01
181,-8.920487167781985249e-01,6.020772806716979675e-01
182,-8.622619315585253741e-01,5.987357941720683474e-01
183,-8.323335029196355928e-01,5.938880678900330112e-01
184,-8.022644600719418539e-01,5.923408036168481550e-01
185,-7.720558092739027156e-01,5.892776036542414220e-01
186,-7.417084493912102783e-01,5.862763608462998599e-01
187,-7.112231875711494400e-01,5.833301813760028987e-01
188,-6.806007487946489354e-01,5.804379296178479031e-01
189,-6.498417866108882057e-01,5.776023760114130656e-01
190,-6.189468939975963924e-01,5.734584475270306791e-01
191,-5.879166250058134313e-01,5.721271122209292681e-01
192,-5.567515210747222554e-01,5.694850298801323873e-01
193,-5.254520657437539155e-01,5.668842094995271141e-01
194,-4.940186878097284073e-01,5.643204188049689707e-01
195,-4.624517684474140911e-01,5.617900339479930949e-01
196,-4.307516496809300488e-01,5.592969010383457285e-01
197,-3.989186392141496063e-01,5.556327849672573205e-01
198,-3.669530220225170614e-01,5.544459830513023268e-01
199,-3.348550691573007332e-01,5.520916834351820013e-01
200,-3.026250264253654843e-01,5.497622253170331152e-01
201,-2.702631077701475038e-01,5.474462761774369080e-01
202,-2.377695079515720344e-01,5.451435200801567627e-01
203,-2.051443977577920574e-01,5.428522571045454326e-01
204,-1.723879372429267531e-01,5.394478116955998548e-01
205,-1.395002737254560921e-01,5.383120146781309456e-01
206,-1.064815438118664331e-01,5.360271063651198542e-01
207,-7.333186698614088672e-02,5.336891542535020516e-01
208,-4.005136003834670888e-02,5.312254922574262128e-01
209,-6.640113322493894008e-03,5.286049707184757862e-01
210,2.690174646796650304e-02,5.258319222606194776e-01
211,6.057414837301107469e-02,5.214190238923662735e-01
212,9.437698297229878130e-02,5.199016641337587119e-01
213,1.283101284204600512e-01,5.168289429386527800e-01
214,1.623734860253959744e-01,5.136920245903772164e-01
215,1.965669357811582474e-01,5.105004381993206719e-01
216,2.308903576634293298e-01,5.072552913145408349e-01
217,2.653436276494604562e-01,5.039647689381779871e-01
218,2.999266165877979562e-01,4.989638579459755863e-01
219,3.346391915364942959e-01,4.972766132978824749e-01
220,3.694812165909475699e-01,4.938867926115373397e-01
221,4.044525512989118332e-01,4.904678628868589518e-01
222,4.395530507612400717e-01,4.870209712227110410e-01
223,4.747825651855832607e-01,4.835465102860484476e-01
224,5.101409398713565579e-01,4.800436231963237654e-01
225,5.456280138647536804e-01,4.782846590655400187e-01
226,5.812436220790150321e-01,4.729583114896940277e-01
227,6.169875934038445697e-01,4.693747127237009042e-01
228,6.528597496640750064e-01,4.657646909085780829e-01
229,6.888599073152246177e-01,4.621292614909665031e-01
230,7.249878758347786389e-01,4.584735685938866045e-01
231,7.612434625007141742e-01,4.548024973735260157e-01
232,7.976264732159287218e-01,4.492694960712204644e-01
233,8.341367080538097944e-01,4.474142265574032606e-01
234,8.707739619496893679e-01,4.436962309096912915e-01
235,9.075380232150103144e-01,4.399627469899958232e-01
236,9.444286751311511408e-01,4.362135706178065786e-01
237,9.814456946032843465e-01,4.324485417204888549e-01
238,1.018588850921690048e+00,4.286676000654406904e-01
239,1.055857907832656428e+00,4.229679634322876525e-01
240,1.093252621771410693e+00,4.210587191597535139e-01
241,1.130772742262700081e+00,4.172326793815168688e-01
242,1.168418011042537730e+00,4.133969587958306047e-01
243,1.206188172976405459e+00,4.095582979136252466e-01
244,1.244082977292546799e+00,4.057181294567431817e-01
245,1.282102168809703402e+00,4.018763767649772278e-01
246,1.320245487892347303e+00,3.961111350135194664e-01
247,1.358512669592244038e+00,3.941887530907535742e-01
248,1.396903444151963658e+00,3.903439490780347687e-01
249,1.435417536949299633e+00,3.864984111592543736e-01
250,1.474054668331139517e+00,3.826516209300782623e-01
251,1.512814553007108653e+00,3.788041575094059921e-01
252,1.551696900458701789e+00,3.749575184399379091e-01
253,1.590701415381715833e+00,3.691884190559887591e-01
254,1.629827799113583886e+00,3.672763932561955991e-01
255,1.669075779120221092e+00,3.634562645729881303e-01
256,1.708445091648716163e+00,3.596524609596662425e-01
257,1.747935471656689499e+00,3.558673042264917652e-01
258,1.787546653457381396e+00,3.520979174895966790e-01
259,1.827278369842375350e+00,3.483447157841000341e-01
260,1.867130352934572191e+00,3.427432981346322238e-01
261,1.907102333763836866e+00,3.408753453681401258e-01
262,1.947194042431994454e+00,3.371719088979028833e-01
263,1.987405207984113797e+00,3.335571091291072987e-01
264,2.027735558486220224e+00,3.302628579617331028e-01
265,2.068184848778969798e+00,3.275738118367750862e-01
266,2.108752880872279523e+00,3.322108238358638110e-01
267,2.149439447338681308e+00,3.902815775289073530e-01
268,2.190244342656074483e+00,4.173757195669217657e-01
269,2.231167363476618259e+00,4.604693455227842902e-01
270,2.272208309210989263e+00,4.866307147167486802e-01
271,2.313367008428124816e+00,5.017599950304728607e-01
272,2.354643326225852373e+00,5.108933313272988608e-01
273,2.396037132743447984e+00,5.175505170528850174e-01
274,2.437548300400139034e+00,5.236547481414270955e-01
275,2.479176704291650157e+00,5.251015450425288167e-01
276,2.520922238670281867e+00,5.278588427958621487e-01
277,2.562784865775856957e+00,5.303490231090122187e-01
278,2.604764557515706791e+00,5.326862226495567842e-01
279,2.646861286436345662e+00,5.349774508374780524e-01
280,2.689075024005327386e+00,5.372474394716491020e-01
281,2.731405750860595560e+00,5.406436140080469466e-01
282,2.773853538495254512e+00,5.417723956925961648e-01
283,2.816418489780295520e+00,5.440201695637775225e-01
284,2.859100695666220826e+00,5.462521294541564654e-01
285,2.901900237954815776e+00,5.484607734539405088e-01
286,2.944817191249934574e+00,5.506448391298703893e-01
287,2.987851747190036544e+00,5.527998839566509170e-01
288,3.031004163446798128e+00,5.538665394035391376e-01
289,3.074274662917529710e+00,5.570211903971087342e-01
290,3.117663434682434342e+00,5.590916639214965622e-01
291,3.161170630969549755e+00,5.611346542250060798e-01
292,3.204796566005649883e+00,5.631487562940445946e-01
293,3.248541698819120693e+00,5.651408790462629783e-01
294,3.292406379304248176e+00,5.671090331330285172e-01
295,3.336390871455029661e+00,5.700207891501861690e-01
296,3.380495422240348269e+00,5.709786228372509820e-01
297,3.424720542161161063e+00,5.728822458562500275e-01
298,3.469066625041484553e+00,5.747667537682505934e-01
299,3.513534037813121014e+00,5.766325898503358305e-01
300,3.558123489550832019e+00,5.784801599236646386e-01
301,3.602835260798329831e+00,5.803107199079454714e-01
302,3.647669970434868070e+00,5.830272063102406310e-01
303,3.692627813115400226e+00,5.839221949115589450e-01
304,3.737709125473847926e+00,5.857059594867618513e-01
305,3.782914593396288883e+00,5.874754320990290823e-01
306,3.828245192663934482e+00,5.892300376939568762e-01
307,3.873701142555590948e+00,5.909725124754102721e-01
308,3.919282816956652926e+00,5.927035573393963919e-01
309,3.964990705419061623e+00,5.952816774055931237e-01
310,4.010825440828004851e+00,5.961340448841440098e-01
311,4.056787646463229535e+00,5.978345565463875078e-01
312,4.102877686309771121e+00,5.995268946477255723e-01
313,4.149095971928568716e+00,6.012123587902086230e-01
314,4.195442983560165651e+00,6.028912288601663283e-01
315,4.241919266741377648e+00,6.045640975112317461e-01
316,4.288525282394750171e+00,6.070654618397954838e-01
317,4.335261355100234582e+00,6.078971007623042988e-01
318,4.382127835409134420e+00,6.095589420146396709e-01
319,4.429125104242772615e+00,6.112185590302187110e-01
320,4.476253563900482568e+00,6.128767005633891651e-01
321,4.523513487825316481e+00,6.145347251001956890e-01
322,4.570905080626849859e+00,6.161935313071785769e-01
323,4.618428553619491339e+00,6.186843511515295324e-01
324,4.666084124527534627e+00,6.195153767954721946e-01
325,4.713871978330188561e+00,6.211802160256104655e-01
326,4.761792172800502598e+00,6.228485934523814160e-01
327,4.809844731147716601e+00,6.245212221077767190e-01
328,4.858029666284045867e+00,6.261980057504953345e-01
329,4.906346976873007470e+00,6.278806406721023636e-01
330,4.954796581640679598e+00,6.304129903123374401e-01
331,5.003378306315480195e+00,6.312630966988096448e-01
332,5.052091953666359103e+00,6.329631751270909934e-01
333,5.100937305863231686e+00,6.346700262975590867e-01
334,5.149914110324695926e+00,6.363831996506666977e-01
335,5.199022014304454764e+00,6.381029006607217280e-01
336,5.248260616414277102e+00,6.398291186286987342e-01
337,5.297629496166496033e+00,6.424320788650333958e-01
338,5.347128213024059384e+00,6.433010020304370524e-01
339,5.396756267341425328e+00,6.450451436407678152e-01
340,5.446513084592491616e+00,6.467944778412527684e-01
341,5.496398077170205454e+00,6.485482909901002513e-01
342,5.546410649340166366e+00,6.503061206284072027e-01
343,5.596550188207582543e+00,6.520658634854881175e-01
344,5.646816012769329873e+00,6.547076677126599797e-01
345,5.697207426801526253e+00,6.555903318955415005e-01
346,5.747723747653275872e+00,6.573535696808668893e-01
347,5.798364305234300353e+00,6.591137466779576348e-01
348,5.849128402365425750e+00,6.608707835551068666e-01
349,5.900015319564600347e+00,6.626234399503172501e-01
350,5.951024375871425853e+00,6.643699208206402806e-01
351,6.002154929592275145e+00,6.669744772843440028e-01
352,6.053406359177130547e+00,6.678353089706531298e-01
353,6.104778025082166160e+00,6.695516093962681214e-01
354,6.156269343415750050e+00,6.712547856382821143e-01
355,6.207879792317523737e+00,6.729417069441659960e-01
356,6.259608897588661236e+00,6.746105043231186427e-01
357,6.311456192709272273e+00,6.762596679015443479e-01
358,6.363421259882638736e+00,6.786957015620924683e-01
359,6.415503751980899949e+00,6.794915887923684839e-01
360,6.467703372763644154e+00,6.810702361213254452e-01
361,6.520019846374282224e+00,6.826216329363867796e-01
362,6.572452930721159881e+00,6.841446737768346331e-01
363,6.625002431637011746e+00,6.856382792485435917e-01
364,6.677668181735821662e+00,6.871067509948542984e-01
365,6.730450026518261630e+00,6.892373645906003654e-01
366,6.783347822958091022e+00,6.899364504855399760e-01
367,6.836361440105788390e+00,6.913007347004190839e-01
