,x,y,z,pressure-normalized,heat-flux-normalized
0,1.801393234715019040e-02,1.413014671834004973e-05,1.412927266209419993e-05,6.644064494592399228e+01,2.725194706252953620e+05
1,1.801393234716797132e-02,-1.413015164075904036e-05,1.412927455296186053e-05,6.651437225270957754e+01,2.742354415890713572e+05
2,1.801425152118947895e-02,-4.239647027315486874e-05,1.408751938060861076e-05,6.655931476940415337e+01,2.744501740548696835e+05
3,1.801489037150729930e-02,-7.066542968635006064e-05,1.403562920842667929e-05,6.657875492106640536e+01,2.729718479890354211e+05
4,1.801584891028560134e-02,-9.892526808818643527e-05,1.398269137263937987e-05,6.657612162493548169e+01,2.716455826519314433e+05
5,1.801712700145940982e-02,-1.271719423718006088e-04,1.392937831772264023e-05,6.655067739012024219e+01,2.708235121303197229e+05
6,1.801872447537644986e-02,-1.554020484774709123e-04,1.387555155671143970e-05,6.650876953382024226e+01,2.700504031194308773e+05
7,1.802064112665078058e-02,-1.836121233136553919e-04,1.382109439321750959e-05,6.644629866426767251e+01,2.694063033614740125e+05
8,1.802287670998256944e-02,-2.117986294730236127e-04,1.376595288998026074e-05,6.636521435564446847e+01,2.688840668522970518e+05
9,1.802543093907304009e-02,-2.399579909579571105e-04,1.371010854012818011e-05,6.626480216350681474e+01,2.684629892510992941e+05
10,1.802830348685461118e-02,-2.680866212511731259e-04,1.365355852773154936e-05,6.614542398481601992e+01,2.680227968719826313e+05
11,1.803149398505081089e-02,-2.961809266729187925e-04,1.359630782275159050e-05,6.600670607546751967e+01,2.675763352890452952e+05
12,1.803500202455615015e-02,-3.242373145899617257e-04,1.353836771386876012e-05,6.584859854828125947e+01,2.671092453662601765e+05
13,1.803882715706126016e-02,-3.522522059960772937e-04,1.347975447474053032e-05,6.568305594915916856e+01,2.662895110697814962e+05
14,1.804296889191899997e-02,-3.802220137803055027e-04,1.342048665739419968e-05,6.553632343501121227e+01,2.645894556634097826e+05
15,1.804742669754588053e-02,-4.081431533104570202e-04,1.336058498090216947e-05,6.536141605161941470e+01,2.635703141479945625e+05
16,1.805220000420184115e-02,-4.360120614086757237e-04,1.330007387470469989e-05,6.516201393009019682e+01,2.626807944440118736e+05
17,1.805728820152940894e-02,-4.638251778277573058e-04,1.323898049673159949e-05,6.494419639755784601e+01,2.616895760048776574e+05
18,1.806269063900746083e-02,-4.915789491313333169e-04,1.317733022027199071e-05,6.473751512073751258e+01,2.603196168488285039e+05
19,1.806840662624904087e-02,-5.192698300603274843e-04,1.311514724539824967e-05,6.445860492346064063e+01,2.597515125220601913e+05
20,1.807443543345607986e-02,-5.468942853611551960e-04,1.305245931563565067e-05,6.415178510316860638e+01,2.590565701344764966e+05
21,1.808077629191221988e-02,-5.744487912763621140e-04,1.298929848158171955e-05,6.382528831725169027e+01,2.582100846065655351e+05
22,1.808742839409933911e-02,-6.019298356061622427e-04,1.292569801160313008e-05,6.348034493353546281e+01,2.572641161011974327e+05
23,1.809439089382073110e-02,-6.293339174565982554e-04,1.286169282745667988e-05,6.311747755151882444e+01,2.562345598682978016e+05
24,1.810166290691868005e-02,-6.566575494194541035e-04,1.279732259506847941e-05,6.273706408897260900e+01,2.551283283185793553e+05
25,1.810924351149593992e-02,-6.838972575986235723e-04,1.273263058167934048e-05,6.233945140466595092e+01,2.539488284753908811e+05
26,1.811713174763298143e-02,-7.110495802419897118e-04,1.266765791520773036e-05,6.192498400615050258e+01,2.527000153282206738e+05
27,1.812532661738329096e-02,-7.381110673375847891e-04,1.260244416487734015e-05,6.149397812059485346e+01,2.513865081687996571e+05
28,1.813382708594421869e-02,-7.650782839274488083e-04,1.253703310384269943e-05,6.104712500444211543e+01,2.500210170206420880e+05
29,1.814263208234023067e-02,-7.919478115072239258e-04,1.247147303895881988e-05,6.058477317745191471e+01,2.486075278421752155e+05
30,1.815174049900706091e-02,-8.187162461274979800e-04,1.240581268123111000e-05,6.010725779560053184e+01,2.471474272256942641e+05
31,1.816115119229349054e-02,-8.453801992931022713e-04,1.234010117738280061e-05,5.961488791552260835e+01,2.456407324619396531e+05
32,1.817086298293416058e-02,-8.719362986999720051e-04,1.227439151077824929e-05,5.910775977326261454e+01,2.440863039090778329e+05
33,1.818087465640443046e-02,-8.983811885913927904e-04,1.220873840967235992e-05,5.858635117218939570e+01,2.424841083247461356e+05
34,1.819118496284381076e-02,-9.247115292784147600e-04,1.214319109352589971e-05,5.805116770482975852e+01,2.408346843570637575e+05
35,1.820179261701585990e-02,-9.509239965488683853e-04,1.207779381435711038e-05,5.750258704984484126e+01,2.391389241380113235e+05
36,1.821269629924603117e-02,-9.770152834751031148e-04,1.201259307115386940e-05,5.694096692159369866e+01,2.373981284960701596e+05
37,1.822389465576048848e-02,-1.002982100692307926e-03,1.194763817044233918e-05,5.636681736468633375e+01,2.356135819784281484e+05
38,1.823538629870220112e-02,-1.028821176074080955e-03,1.188297766595956992e-05,5.578065630092844174e+01,2.337875265983951977e+05
39,1.824716980638235037e-02,-1.054529254895840993e-03,1.181865915287997075e-05,5.518272647879089021e+01,2.319181603026447701e+05
40,1.825924372330419918e-02,-1.080103099519338960e-03,1.175473228292084963e-05,5.457344403126876387e+01,2.300060243863531505e+05
41,1.827160656061882146e-02,-1.105539490066187935e-03,1.169124742165353075e-05,5.395347107362490391e+01,2.280549386384633544e+05
42,1.828425679638235116e-02,-1.130835224769714950e-03,1.162825179333854049e-05,5.332318619496341228e+01,2.260649818531832425e+05
43,1.829719287531303071e-02,-1.155987119199574070e-03,1.156578921360103004e-05,5.268305458678495512e+01,2.240369327285160543e+05
44,1.831041320904643055e-02,-1.180992006552751029e-03,1.150390349800948917e-05,5.203356855914253032e+01,2.219718413579269254e+05
45,1.832391617593690999e-02,-1.205846737159062092e-03,1.144263839048567012e-05,5.137521726025053681e+01,2.198708106076462427e+05
46,1.833770012166672028e-02,-1.230548179540328062e-03,1.138203661074323082e-05,5.070847920939007736e+01,2.177349444202624145e+05
47,1.835176335913740048e-02,-1.255093220150983908e-03,1.132213910345201961e-05,5.003385004195025232e+01,2.155654133015484840e+05
48,1.836610416803917054e-02,-1.279478762576258992e-03,1.126298575307378068e-05,4.935182537673132686e+01,2.133633650170568144e+05
49,1.838072079488457106e-02,-1.303701727694080983e-03,1.120461566022846077e-05,4.866290369480569211e+01,2.111299439385626465e+05
50,1.839561145695460878e-02,-1.327759059963091104e-03,1.114706974075791946e-05,4.796760083371479055e+01,2.088661630534753494e+05
51,1.841077434128060922e-02,-1.351647725424554936e-03,1.109038975013567946e-05,4.726651392802881446e+01,2.065745231465240649e+05
52,1.842620760037266131e-02,-1.375364704785875941e-03,1.103461618675343945e-05,4.655996452283169162e+01,2.042535596860067453e+05
53,1.844190935088617020e-02,-1.398906992007087910e-03,1.097978977995643972e-05,4.584854620298288097e+01,2.019054906573850021e+05
54,1.845787767560113854e-02,-1.422271597689052022e-03,1.092595830103354961e-05,4.513284289382318804e+01,1.995328206551056355e+05
55,1.847411062134199020e-02,-1.445455546692248983e-03,1.087317776911732049e-05,4.441332396018485440e+01,1.971365868711048097e+05
56,1.849060619452673124e-02,-1.468455872583537998e-03,1.082151244061225054e-05,4.369052220060559932e+01,1.947185810960808012e+05
57,1.850736235741283833e-02,-1.491269613963890940e-03,1.077104635223470043e-05,4.296487502804373548e+01,1.922794256543635274e+05
58,1.852437702695869035e-02,-1.513893814312682051e-03,1.072191349972119916e-05,4.223691686637889831e+01,1.898193079803243454e+05
59,1.854164806610894903e-02,-1.536325512883956069e-03,1.067431224378839970e-05,4.150732429051917904e+01,1.873408335315580189e+05
60,1.855917326142466142e-02,-1.558561719449640028e-03,1.062852691758676946e-05,4.077693039319784418e+01,1.848486890900823055e+05
61,1.857695029223627864e-02,-1.580599381668691900e-03,1.058501581995007046e-05,4.004617379842078151e+01,1.823391784050637507e+05
62,1.859497666926879927e-02,-1.602435318524953085e-03,1.054467019210412015e-05,3.931602075667106533e+01,1.798027153197490261e+05
63,1.861324958433860019e-02,-1.624066052520314017e-03,1.050964627533808936e-05,3.858320628341198244e+01,1.771465778801915585e+05
64,1.863176088623988078e-02,-1.645482058107162072e-03,1.049144920393535044e-05,3.789431003487330685e+01,1.750641056446989242e+05
65,1.865049499913255110e-02,-1.666665891217283899e-03,1.052065803046285981e-05,3.707951997194948746e+01,1.720281647877140786e+05
66,1.866945076666607847e-02,-1.687617430404859085e-03,1.059428189127686034e-05,3.639207415178569960e+01,1.696266725776972598e+05
67,1.868863970403378955e-02,-1.708350599303099090e-03,1.068019181760841032e-05,3.566521990462341307e+01,1.670661599478666612e+05
68,1.870806430675441001e-02,-1.728868277816936931e-03,1.076868850469509952e-05,3.494303285770452305e+01,1.644923412475238729e+05
69,1.872772204804375173e-02,-1.749167637839001057e-03,1.085813248136509983e-05,3.422132021781246891e+01,1.619103861654774519e+05
70,1.874761034365082096e-02,-1.769245850789369096e-03,1.094788580327210943e-05,3.350212217416969906e+01,1.593237930531453167e+05
71,1.876772657182549861e-02,-1.789100118362378991e-03,1.103765972953161072e-05,3.278579229877863810e+01,1.567306876719686843e+05
72,1.878806807669140128e-02,-1.808727678209001970e-03,1.112728963692870075e-05,3.207309920693840155e+01,1.541299171387082606e+05
73,1.880863218065597850e-02,-1.828125816356989059e-03,1.121667074626307920e-05,3.136508782071393853e+01,1.515233287437076215e+05
74,1.882941618427247041e-02,-1.847291865707075941e-03,1.130573538053794050e-05,3.066232686126310369e+01,1.489097644528416859e+05
75,1.885041736777774007e-02,-1.866223206330329095e-03,1.139444190050218939e-05,2.996640135177066355e+01,1.462974802708083589e+05
76,1.887163298715375040e-02,-1.884917260766102998e-03,1.148275921319441074e-05,2.927714551681500410e+01,1.436871555166223552e+05
77,1.889306027394598020e-02,-1.903371493091646997e-03,1.157066279864502996e-05,2.859524900714063733e+01,1.410826007181343157e+05
78,1.891469643622369079e-02,-1.921583408929753919e-03,1.165813402473059979e-05,2.792117656868296294e+01,1.384949335854204837e+05
79,1.893653865916388943e-02,-1.939550555230866013e-03,1.174515928469008951e-05,2.725362716318058887e+01,1.359256100341448328e+05
80,1.895858410461232976e-02,-1.957270519189023041e-03,1.183172721972064070e-05,2.659193585699200213e+01,1.333675716442683188e+05
81,1.898082991124666954e-02,-1.974740927820229936e-03,1.191782690303006917e-05,2.593692656039648980e+01,1.308180461057723005e+05
82,1.900327319673094859e-02,-1.991959449034767012e-03,1.200344468107262959e-05,2.528945434320193897e+01,1.282800836900808499e+05
83,1.902591105875339056e-02,-2.008923791790840057e-03,1.208856471965666928e-05,2.464971197909506628e+01,1.257562498419360927e+05
84,1.904874057253812952e-02,-2.025631703536609138e-03,1.217317214528129948e-05,2.401778805609042067e+01,1.232462074945937493e+05
85,1.907175879095899043e-02,-2.042080969887628914e-03,1.225725340987806084e-05,2.339407724297072022e+01,1.207498460071658192e+05
86,1.909496274442657945e-02,-2.058269414202125881e-03,1.234079505307237920e-05,2.277907597708421150e+01,1.182685998982977180e+05
87,1.911834944137926970e-02,-2.074194897613451140e-03,1.242378381902888067e-05,2.217310484138727489e+01,1.158050885882058501e+05
88,1.914191586888421004e-02,-2.089855319123680010e-03,1.250620791467507035e-05,2.157629129424886116e+01,1.133613275662803208e+05
89,1.916565899229729850e-02,-2.105248615112637143e-03,1.258805646640025956e-05,2.098865146759500533e+01,1.109375796560727904e+05
90,1.918957575415955116e-02,-2.120372758455643918e-03,1.266931767360760048e-05,2.041032784273495793e+01,1.085344195332360250e+05
91,1.921366307579009877e-02,-2.135225759387790207e-03,1.274997895760165990e-05,1.984150311745624151e+01,1.061527103235285467e+05
92,1.923791786592346856e-02,-2.149805670405150956e-03,1.283002884462164002e-05,1.928234118843903744e+01,1.037936157067116292e+05
93,1.926233700134152155e-02,-2.164110574528001901e-03,1.290945684283905026e-05,1.873293841935925030e+01,1.014584013058408600e+05
94,1.928691733654986848e-02,-2.178138591023625042e-03,1.298825228101644072e-05,1.819333615846178631e+01,9.914812939027383982e+04
95,1.931165571829111111e-02,-2.191887883819063944e-03,1.306640426114262939e-05,1.766354697901970283e+01,9.686356497970000783e+04
96,1.933654896936945131e-02,-2.205356651644055886e-03,1.314390251183594016e-05,1.714358072089833485e+01,9.460521540271349659e+04
97,1.936159389389723040e-02,-2.218543131024128083e-03,1.322073670476939015e-05,1.663345244886348340e+01,9.237343654178324505e+04
98,1.938678727640060981e-02,-2.231445595735481215e-03,1.329689453448495049e-05,1.613318360797255124e+01,9.016871058584118146e+04
99,1.941212588239882991e-02,-2.244062357037481838e-03,1.337236185777803035e-05,1.564271471161424287e+01,8.799004056989646051e+04
100,1.943760646018043159e-02,-2.256391764472432792e-03,1.344712470079651992e-05,1.516240307228743589e+01,8.584153076353450888e+04
101,1.946322574139817962e-02,-2.268432206003893978e-03,1.352116959464913032e-05,1.469209699836040350e+01,8.372045098430252983e+04
102,1.948898044074427044e-02,-2.280182107752833955e-03,1.359448299686116037e-05,1.423186031216227221e+01,8.162782389109385258e+04
103,1.951486725644967918e-02,-2.291639934119450023e-03,1.366705129409551028e-05,1.378173504179159536e+01,7.956457405284819833e+04
104,1.954088287150124864e-02,-2.302804188220430003e-03,1.373886145825185977e-05,1.334173686789679891e+01,7.753137653630721616e+04
105,1.956702395384158841e-02,-2.313673411838088837e-03,1.380990085895603005e-05,1.291186635876358757e+01,7.552880286393160350e+04
106,1.959328715609225113e-02,-2.324246185215666019e-03,1.388015654823250973e-05,1.249211386399709767e+01,7.355733570302871522e+04
107,1.961966911552573065e-02,-2.334521126976506992e-03,1.394961524863910040e-05,1.208246025602518792e+01,7.161741502558317734e+04
108,1.964616645539454115e-02,-2.344496894578907212e-03,1.401826407553432990e-05,1.168285997830244760e+01,6.970937974289165868e+04
109,1.967277578722822010e-02,-2.354172185044447942e-03,1.408609059249507072e-05,1.129325051335597152e+01,6.783349894673783274e+04
110,1.969949370970689936e-02,-2.363545734400861187e-03,1.415308247604487033e-05,1.091356651519820353e+01,6.599008640149599523e+04
111,1.972631680927832906e-02,-2.372616317750209092e-03,1.421922747319358025e-05,1.054372750218593069e+01,6.417943020145529590e+04
112,1.975324166239822085e-02,-2.381382749903352119e-03,1.428451372014487990e-05,1.018364050739201332e+01,6.240186053647076915e+04
113,1.978026483521097903e-02,-2.389843885054075169e-03,1.434892965827828057e-05,9.833184831797492365e+00,6.065751657377646916e+04
114,1.980738288395200025e-02,-2.397998616744223977e-03,1.441246372056897000e-05,9.492213977977932871e+00,5.894642675436185527e+04
115,1.983459235616811048e-02,-2.405845878035967923e-03,1.447510433283078067e-05,9.160602106547406365e+00,5.726894164533806907e+04
116,1.986188979344781849e-02,-2.413384642044397871e-03,1.453684029409467980e-05,8.838184270170026835e+00,5.562481963346624980e+04
117,1.988927173255486056e-02,-2.420613921894841994e-03,1.459766091805362048e-05,8.524800309321165059e+00,5.401388856046948058e+04
118,1.991673470811268845e-02,-2.427532770990210084e-03,1.465755611631731010e-05,8.220294378409741753e+00,5.243594327112840983e+04
119,1.994427525636961046e-02,-2.434140283391064957e-03,1.471651678965416044e-05,7.924518995337431981e+00,5.089075348021051468e+04
120,1.997188991904061059e-02,-2.440435593950802950e-03,1.477453579390183967e-05,7.637333717536248123e+00,4.937809420889733883e+04
121,1.999957524984876875e-02,-2.446417878772838995e-03,1.483160968544467016e-05,7.358600655417176561e+00,4.789779233057310194e+04
122,2.002732782349496074e-02,-2.452086355695764965e-03,1.488774254561103967e-05,7.088191086637223748e+00,4.644971326066891197e+04
123,2.005514425206459880e-02,-2.457440285480348968e-03,1.494295504775490033e-05,6.825961680763470874e+00,4.503398437273156742e+04
124,2.008302120661344115e-02,-2.462478972678388937e-03,1.499730623260639017e-05,6.571796290862730316e+00,4.365069578209090832e+04
125,2.011095542545651010e-02,-2.467201762611247184e-03,1.505094146721707923e-05,6.325791290090279517e+00,4.229973362967016146e+04
126,2.013894356847974881e-02,-2.471608015054505090e-03,1.510415324299367950e-05,6.089008990415719857e+00,4.097537554400513909e+04
127,2.016698107701387147e-02,-2.475696957966802992e-03,1.515702654978806967e-05,5.864362683066196347e+00,3.967017653153596621e+04
128,2.019505536309307986e-02,-2.479466973797131088e-03,1.520421872242885955e-05,5.665545678373868910e+00,3.824320689273461176e+04
129,2.022548301862290079e-02,-2.483283209306617802e-03,1.523742616490787071e-05,5.532909545135911600e+00,3.685137114751010085e+04
130,2.025894683221794029e-02,-2.487391188951570790e-03,1.526263273103658889e-05,5.457286670659480698e+00,3.587425288586381794e+04
131,2.029383274434353943e-02,-2.491673743792676993e-03,1.528891049069575032e-05,5.393990826413702422e+00,3.507889017807884375e+04
132,2.033020099382456050e-02,-2.496138268679309012e-03,1.531630481868615144e-05,5.341354801193054946e+00,3.441251466954249190e+04
133,2.036811435415401828e-02,-2.500792469613971787e-03,1.534486299904746896e-05,5.296092806836999678e+00,3.383503676904746681e+04
134,2.040763823866620016e-02,-2.505644376663087019e-03,1.537463430427376027e-05,5.256035231755228132e+00,3.332149216642955435e+04
135,2.044884080994517975e-02,-2.510702357387843784e-03,1.540567007772634042e-05,5.219704474506289493e+00,3.285582364564456657e+04
136,2.049179309362747850e-02,-2.515975130814492207e-03,1.543802381935656905e-05,5.186010217174571224e+00,3.242689449731331115e+04
137,2.053656909676343165e-02,-2.521471781964242879e-03,1.547175127486166872e-05,5.154113541162317347e+00,3.202647446991508696e+04
138,2.058324593090632079e-02,-2.527201776963557047e-03,1.550691052840070058e-05,5.123410848020525599e+00,3.164884089766243778e+04
139,2.063190394010356102e-02,-2.533174978756189827e-03,1.554356209900388151e-05,5.093424034086853069e+00,3.128892592304576829e+04
140,2.068262683396936141e-02,-2.539401663439046046e-03,1.558176904080937891e-05,5.063799575659007957e+00,3.094311784952319795e+04
141,2.073550182602338851e-02,-2.545892537244472988e-03,1.562159704726754007e-05,5.034070726479588309e+00,3.060653981804070645e+04
142,2.079061977748511078e-02,-2.552658754192289967e-03,1.566311455945190986e-05,5.003985528497283397e+00,3.027753849165542124e+04
143,2.084807534671867871e-02,-2.559711934435476149e-03,1.570639287862980106e-05,4.973456423795250103e+00,2.995626263123433455e+04
144,2.090796714452826041e-02,-2.567064183324042122e-03,1.575150628323881153e-05,4.942144125683483935e+00,2.963869298006865938e+04
145,2.097039789550875916e-02,-2.574728111212263876e-03,1.579853215042103929e-05,4.910121980301747513e+00,2.932681037921564348e+04
146,2.103547460566192878e-02,-2.582716854035051971e-03,1.584755108228354841e-05,4.877379769309519553e+00,2.901751135177498145e+04
147,2.110330873649279848e-02,-2.591044094679818052e-03,1.589864703703474950e-05,4.843651129442554826e+00,2.870595552781119477e+04
148,2.117401638580598128e-02,-2.599724085180833179e-03,1.595190746516700946e-05,4.809185933093424126e+00,2.839995050776418429e+04
149,2.124771847542610004e-02,-2.608771669763572040e-03,1.600742345085931872e-05,4.773575493772282741e+00,2.809370082519934294e+04
150,2.132454094607097103e-02,-2.618202308767117806e-03,1.606528985876377088e-05,4.736911474924681897e+00,2.778566982531349640e+04
151,2.140461495961037963e-02,-2.628032103473228881e-03,1.612560548635749960e-05,4.699226451959823692e+00,2.747567304835124014e+04
152,2.148807710894710954e-02,-2.638277821871082979e-03,1.618847322203515075e-05,4.660565864517917767e+00,2.716399844638096329e+04
153,2.157506963576045003e-02,-2.648956925387233909e-03,1.625400020912348042e-05,4.620927677858773563e+00,2.685096790511294967e+04
